20.0     75
20.02    73
20.04    72
20.06    68
20.08    70
20.1     57
20.12    55
20.14    57
20.16    86
20.18    60
20.2     76
20.22    70
20.24    81
20.26    59
20.28    67
20.3     68
20.32    61
20.34    62
20.36    44
20.38    64
20.4     47
20.42    59
20.44    66
20.46    64
20.48    70
20.5     55
20.52    59
20.54    67
20.56    67
20.58    63
20.6     57
20.62    55
20.64    59
20.66    78
20.68    66
20.7     56
20.72    57
20.74    72
20.76    68
20.78    61
20.8     62
20.82    50
20.84    76
20.86    74
20.88    70
20.9     63
20.92    53
20.94    65
20.96    67
20.98    53
21.0     67
21.02    56
21.04    69
21.06    62
21.08    47
21.1     63
21.12    69
21.14    49
21.16    62
21.18    58
21.2     51
21.22    73
21.24    41
21.26    60
21.28    64
21.3     59
21.32    65
21.34    65
21.36    61
21.38    68
21.4     63
21.42    51
21.44    63
21.46    59
21.48    51
21.5     56
21.52    63
21.54    63
21.56    63
21.58    55
21.6     69
21.62    52
21.64    67
21.66    66
21.68    48
21.7     51
21.72    63
21.74    72
21.76    69
21.78    64
21.8     47
21.82    45
21.84    63
21.86    48
21.88    61
21.9     70
21.92    60
21.94    60
21.96    63
21.98    64
22.0     58
22.02    62
22.04    57
22.06    65
22.08    56
22.1     63
22.12    60
22.14    56
22.16    62
22.18    60
22.2     64
22.22    68
22.24    60
22.26    62
22.28    61
22.3     61
22.32    60
22.34    64
22.36    73
22.38    45
22.4     62
22.42    55
22.44    69
22.46    68
22.48    56
22.5     66
22.52    57
22.54    46
22.56    54
22.58    45
22.6     48
22.62    50
22.64    59
22.66    56
22.68    57
22.7     75
22.72    77
22.74    57
22.76    61
22.78    57
22.8     47
22.82    47
22.84    61
22.86    66
22.88    62
22.9     41
22.92    59
22.94    57
22.96    50
22.98    54
23.0     49
23.02    57
23.04    62
23.06    50
23.08    70
23.1     61
23.12    50
23.14    46
23.16    68
23.18    46
23.2     48
23.22    47
23.24    44
23.26    59
23.28    53
23.3     57
23.32    60
23.34    52
23.36    57
23.38    53
23.4     48
23.42    44
23.44    63
23.46    61
23.48    48
23.5     49
23.52    60
23.54    50
23.56    59
23.58    61
23.6     61
23.62    66
23.64    52
23.66    48
23.68    59
23.7     44
23.72    56
23.74    47
23.76    65
23.78    40
23.8     53
23.82    41
23.84    53
23.86    50
23.88    56
23.9     49
23.92    45
23.94    34
23.96    52
23.98    49
24.0     54
24.02    51
24.04    55
24.06    54
24.08    49
24.1     50
24.12    44
24.14    48
24.16    62
24.18    35
24.2     45
24.22    51
24.24    49
24.26    66
24.28    44
24.3     48
24.32    54
24.34    51
24.36    52
24.38    63
24.4     43
24.42    56
24.44    45
24.46    46
24.48    52
24.5     42
24.52    64
24.54    41
24.56    41
24.58    48
24.6     40
24.62    54
24.64    41
24.66    43
24.68    49
24.7     51
24.72    45
24.74    62
24.76    54
24.78    41
24.8     52
24.82    57
24.84    61
24.86    34
24.88    50
24.9     49
24.92    57
24.94    51
24.96    37
24.98    58
25.0     53
25.02    43
25.04    35
25.06    38
25.08    41
25.1     57
25.12    51
25.14    41
25.16    39
25.18    43
25.2     43
25.22    47
25.24    39
25.26    46
25.28    45
25.3     42
25.32    52
25.34    45
25.36    45
25.38    44
25.4     54
25.42    49
25.44    50
25.46    56
25.48    46
25.5     51
25.52    58
25.54    50
25.56    49
25.58    45
25.6     44
25.62    59
25.64    55
25.66    39
25.68    47
25.7     56
25.72    39
25.74    50
25.76    36
25.78    47
25.8     44
25.82    45
25.84    40
25.86    53
25.88    50
25.9     57
25.92    47
25.94    53
25.96    56
25.98    52
26.0     54
26.02    59
26.04    35
26.06    32
26.08    40
26.1     57
26.12    43
26.14    50
26.16    58
26.18    54
26.2     56
26.22    44
26.24    40
26.26    60
26.28    63
26.3     53
26.32    75
26.34    63
26.36    66
26.38    63
26.4     63
26.42    87
26.44    89
26.46    134
26.48    159
26.5     197
26.52    265
26.54    371
26.56    425
26.58    513
26.6     447
26.62    378
26.64    314
26.66    267
26.68    197
26.7     164
26.72    76
26.74    82
26.76    59
26.78    60
26.8     49
26.82    52
26.84    50
26.86    36
26.88    45
26.9     59
26.92    49
26.94    49
26.96    43
26.98    41
27.0     42
27.02    52
27.04    50
27.06    40
27.08    40
27.1     40
27.12    57
27.14    39
27.16    44
27.18    42
27.2     38
27.22    46
27.24    41
27.26    45
27.28    53
27.3     33
27.32    39
27.34    45
27.36    42
27.38    43
27.4     46
27.42    38
27.44    56
27.46    41
27.48    52
27.5     36
27.52    45
27.54    42
27.56    37
27.58    36
27.6     41
27.62    47
27.64    45
27.66    43
27.68    42
27.7     45
27.72    45
27.74    35
27.76    36
27.78    40
27.8     49
27.82    40
27.84    45
27.86    31
27.88    38
27.9     49
27.92    50
27.94    41
27.96    32
27.98    41
28.0     42
28.02    46
28.04    30
28.06    40
28.08    47
28.1     26
28.12    40
28.14    41
28.16    36
28.18    39
28.2     29
28.22    45
28.24    54
28.26    41
28.28    30
28.3     42
28.32    33
28.34    39
28.36    47
28.38    28
28.4     40
28.42    40
28.44    46
28.46    53
28.48    33
28.5     34
28.52    42
28.54    41
28.56    34
28.58    30
28.6     45
28.62    38
28.64    40
28.66    34
28.68    35
28.7     46
28.72    45
28.74    44
28.76    40
28.78    36
28.8     32
28.82    38
28.84    35
28.86    39
28.88    37
28.9     33
28.92    36
28.94    45
28.96    35
28.98    43
29.0     40
29.02    45
29.04    37
29.06    46
29.08    46
29.1     42
29.12    39
29.14    43
29.16    37
29.18    36
29.2     40
29.22    40
29.24    41
29.26    34
29.28    47
29.3     39
29.32    37
29.34    44
29.36    41
29.38    31
29.4     28
29.42    38
29.44    45
29.46    35
29.48    37
29.5     32
29.52    42
29.54    52
29.56    48
29.58    44
29.6     48
29.62    41
29.64    31
29.66    38
29.68    38
29.7     43
29.72    42
29.74    42
29.76    47
29.78    39
29.8     44
29.82    42
29.84    43
29.86    51
29.88    32
29.9     42
29.92    37
29.94    33
29.96    34
29.98    31
30.0     28
30.02    48
30.04    36
30.06    45
30.08    44
30.1     30
30.12    37
30.14    33
30.16    34
30.18    41
30.2     40
30.22    33
30.24    36
30.26    29
30.28    52
30.3     40
30.32    33
30.34    35
30.36    39
30.38    31
30.4     33
30.42    39
30.44    38
30.46    45
30.48    46
30.5     44
30.52    51
30.54    33
30.56    56
30.58    41
30.6     43
30.62    46
30.64    48
30.66    65
30.68    74
30.7     85
30.72    118
30.74    127
30.76    190
30.78    214
30.8     278
30.82    269
30.84    229
30.86    188
30.88    177
30.9     146
30.92    117
30.94    89
30.96    61
30.98    58
31.0     43
31.02    48
31.04    49
31.06    37
31.08    41
31.1     47
31.12    57
31.14    44
31.16    38
31.18    30
31.2     40
31.22    40
31.24    38
31.26    38
31.28    43
31.3     47
31.32    33
31.34    55
31.36    48
31.38    43
31.4     57
31.42    44
31.44    70
31.46    56
31.48    50
31.5     58
31.52    65
31.54    62
31.56    45
31.58    45
31.6     55
31.62    46
31.64    43
31.66    49
31.68    38
31.7     39
31.72    46
31.74    43
31.76    54
31.78    22
31.8     38
31.82    27
31.84    34
31.86    37
31.88    31
31.9     30
31.92    28
31.94    40
31.96    32
31.98    39
32.0     47
32.02    41
32.04    36
32.06    38
32.08    35
32.1     35
32.12    28
32.14    39
32.16    37
32.18    25
32.2     37
32.22    36
32.24    30
32.26    35
32.28    36
32.3     37
32.32    34
32.34    34
32.36    43
32.38    31
32.4     41
32.42    34
32.44    40
32.46    28
32.48    39
32.5     33
32.52    29
32.54    44
32.56    25
32.58    39
32.6     36
32.62    37
32.64    44
32.66    36
32.68    33
32.7     38
32.72    46
32.74    40
32.76    27
32.78    28
32.8     36
32.82    24
32.84    39
32.86    36
32.88    40
32.9     47
32.92    40
32.94    40
32.96    37
32.98    38
33.0     30
33.02    48
33.04    34
33.06    30
33.08    43
33.1     29
33.12    44
33.14    23
33.16    34
33.18    37
33.2     28
33.22    39
33.24    40
33.26    39
33.28    38
33.3     21
33.32    41
33.34    43
33.36    21
33.38    39
33.4     31
33.42    29
33.44    35
33.46    36
33.48    36
33.5     38
33.52    35
33.54    34
33.56    44
33.58    33
33.6     36
33.62    31
33.64    26
33.66    32
33.68    31
33.7     44
33.72    35
33.74    43
33.76    35
33.78    40
33.8     34
33.82    30
33.84    31
33.86    38
33.88    32
33.9     34
33.92    32
33.94    36
33.96    40
33.98    27
34.0     25
34.02    32
34.04    30
34.06    38
34.08    35
34.1     35
34.12    43
34.14    35
34.16    28
34.18    35
34.2     36
34.22    38
34.24    30
34.26    46
34.28    57
34.3     45
34.32    38
34.34    42
34.36    59
34.38    43
34.4     42
34.42    59
34.44    57
34.46    70
34.48    56
34.5     50
34.52    55
34.54    56
34.56    42
34.58    54
34.6     50
34.62    36
34.64    36
34.66    37
34.68    46
34.7     39
34.72    45
34.74    41
34.76    30
34.78    43
34.8     33
34.82    45
34.84    44
34.86    31
34.88    44
34.9     48
34.92    31
34.94    49
34.96    37
34.98    36
35.0     61
35.02    55
35.04    36
35.06    39
35.08    43
35.1     42
35.12    53
35.14    59
35.16    44
35.18    45
35.2     29
35.22    39
35.24    30
35.26    41
35.28    39
35.3     50
35.32    42
35.34    44
35.36    36
35.38    37
35.4     38
35.42    39
35.44    38
35.46    28
35.48    34
35.5     32
35.52    34
35.54    46
35.56    36
35.58    29
35.6     40
35.62    24
35.64    32
35.66    45
35.68    42
35.7     35
35.72    42
35.74    35
35.76    43
35.78    26
35.8     30
35.82    42
35.84    40
35.86    43
35.88    40
35.9     31
35.92    28
35.94    44
35.96    37
35.98    37
36.0     33
36.02    36
36.04    30
36.06    35
36.08    33
36.1     32
36.12    43
36.14    41
36.16    35
36.18    35
36.2     35
36.22    35
36.24    31
36.26    29
36.28    36
36.3     33
36.32    28
36.34    29
36.36    38
36.38    35
36.4     33
36.42    32
36.44    45
36.46    37
36.48    24
36.5     18
36.52    30
36.54    29
36.56    30
36.58    32
36.6     34
36.62    31
36.64    39
36.66    37
36.68    44
36.7     32
36.72    23
36.74    28
36.76    48
36.78    39
36.8     35
36.82    33
36.84    36
36.86    28
36.88    34
36.9     37
36.92    39
36.94    42
36.96    24
36.98    37
37.0     39
37.02    32
37.04    38
37.06    37
37.08    29
37.1     34
37.12    45
37.14    40
37.16    29
37.18    34
37.2     37
37.22    36
37.24    31
37.26    36
37.28    31
37.3     37
37.32    31
37.34    34
37.36    35
37.38    34
37.4     30
37.42    25
37.44    37
37.46    44
37.48    26
37.5     23
37.52    31
37.54    34
37.56    30
37.58    36
37.6     35
37.62    36
37.64    45
37.66    24
37.68    42
37.7     48
37.72    36
37.74    31
37.76    41
37.78    19
37.8     38
37.82    45
37.84    35
37.86    28
37.88    44
37.9     37
37.92    32
37.94    35
37.96    35
37.98    27
38.0     33
38.02    34
38.04    41
38.06    28
38.08    36
38.1     35
38.12    36
38.14    27
38.16    30
38.18    36
38.2     33
38.22    23
38.24    33
38.26    34
38.28    24
38.3     29
38.32    27
38.34    33
38.36    36
38.38    46
38.4     32
38.42    34
38.44    32
38.46    39
38.48    21
38.5     43
38.52    46
38.54    35
38.56    36
38.58    43
38.6     42
38.62    43
38.64    42
38.66    41
38.68    46
38.7     41
38.72    64
38.74    48
38.76    69
38.78    68
38.8     80
38.82    67
38.84    68
38.86    74
38.88    89
38.9     69
38.92    90
38.94    91
38.96    79
38.98    66
39.0     67
39.02    63
39.04    66
39.06    50
39.08    51
39.1     50
39.12    53
39.14    47
39.16    46
39.18    36
39.2     43
39.22    42
39.24    31
39.26    36
39.28    29
39.3     26
39.32    26
39.34    44
39.36    39
39.38    35
39.4     37
39.42    36
39.44    28
39.46    48
39.48    27
39.5     31
39.52    27
39.54    26
39.56    28
39.58    28
39.6     34
39.62    24
39.64    27
39.66    27
39.68    30
39.7     32
39.72    48
39.74    42
39.76    26
39.78    30
39.8     30
39.82    35
39.84    32
39.86    34
39.88    34
39.9     24
39.92    26
39.94    35
39.96    33
39.98    31
40.0     24
40.02    36
40.04    29
40.06    35
40.08    30
40.1     38
40.12    30
40.14    32
40.16    36
40.18    23
40.2     25
40.22    32
40.24    25
40.26    31
40.28    37
40.3     31
40.32    40
40.34    28
40.36    29
40.38    42
40.4     44
40.42    28
40.44    33
40.46    30
40.48    29
40.5     32
40.52    33
40.54    35
40.56    48
40.58    32
40.6     32
40.62    35
40.64    24
40.66    26
40.68    28
40.7     31
40.72    24
40.74    35
40.76    28
40.78    33
40.8     24
40.82    30
40.84    37
40.86    42
40.88    33
40.9     43
40.92    41
40.94    26
40.96    32
40.98    40
41.0     49
41.02    37
41.04    26
41.06    30
41.08    43
41.1     58
41.12    45
41.14    60
41.16    65
41.18    65
41.2     68
41.22    91
41.24    93
41.26    103
41.28    113
41.3     125
41.32    109
41.34    132
41.36    111
41.38    103
41.4     116
41.42    125
41.44    100
41.46    108
41.48    102
41.5     80
41.52    79
41.54    80
41.56    63
41.58    63
41.6     62
41.62    48
41.64    45
41.66    55
41.68    39
41.7     44
41.72    34
41.74    45
41.76    39
41.78    37
41.8     41
41.82    33
41.84    38
41.86    34
41.88    29
41.9     48
41.92    24
41.94    34
41.96    25
41.98    29
42.0     31
42.02    34
42.04    26
42.06    37
42.08    35
42.1     28
42.12    30
42.14    36
42.16    35
42.18    39
42.2     26
42.22    33
42.24    32
42.26    25
42.28    32
42.3     28
42.32    31
42.34    31
42.36    30
42.38    31
42.4     25
42.42    30
42.44    38
42.46    26
42.48    40
42.5     28
42.52    20
42.54    22
42.56    42
42.58    28
42.6     26
42.62    29
42.64    29
42.66    29
42.68    34
42.7     31
42.72    31
42.74    38
42.76    29
42.78    40
42.8     28
42.82    29
42.84    35
42.86    30
42.88    29
42.9     34
42.92    41
42.94    25
42.96    40
42.98    30
43.0     34
43.02    41
43.04    41
43.06    30
43.08    38
43.1     49
43.12    39
43.14    45
43.16    50
43.18    48
43.2     56
43.22    52
43.24    50
43.26    41
43.28    46
43.3     64
43.32    46
43.34    55
43.36    54
43.38    44
43.4     48
43.42    60
43.44    54
43.46    60
43.48    62
43.5     54
43.52    65
43.54    56
43.56    40
43.58    58
43.6     66
43.62    38
43.64    74
43.66    75
43.68    65
43.7     90
43.72    110
43.74    89
43.76    109
43.78    126
43.8     127
43.82    126
43.84    166
43.86    147
43.88    157
43.9     174
43.92    202
43.94    258
43.96    288
43.98    303
44.0     415
44.02    507
44.04    789
44.06    1151
44.08    1692
44.1     2640
44.12    3789
44.14    5003
44.16    6151
44.18    6240
44.2     5555
44.22    4461
44.24    3778
44.26    3317
44.28    3205
44.3     2921
44.32    2338
44.34    1729
44.36    1124
44.38    703
44.4     445
44.42    326
44.44    230
44.46    176
44.48    155
44.5     97
44.52    97
44.54    87
44.56    89
44.58    59
44.6     51
44.62    61
44.64    53
44.66    49
44.68    44
44.7     56
44.72    45
44.74    40
44.76    35
44.78    36
44.8     35
44.82    50
44.84    40
44.86    36
44.88    34
44.9     38
44.92    47
44.94    36
44.96    42
44.98    40
45.0     32
45.02    40
45.04    37
45.06    41
45.08    39
45.1     46
45.12    52
45.14    45
45.16    46
45.18    63
45.2     52
45.22    45
45.24    67
45.26    56
45.28    47
45.3     52
45.32    44
45.34    35
45.36    46
45.38    47
45.4     48
45.42    44
45.44    50
45.46    41
45.48    29
45.5     38
45.52    39
45.54    42
45.56    22
45.58    40
45.6     34
45.62    21
45.64    32
45.66    32
45.68    36
45.7     32
45.72    24
45.74    26
45.76    30
45.78    28
45.8     21
45.82    35
45.84    25
45.86    32
45.88    24
45.9     37
45.92    33
45.94    31
45.96    35
45.98    30
46.0     20
46.02    27
46.04    43
46.06    29
46.08    30
46.1     27
46.12    26
46.14    24
46.16    28
46.18    29
46.2     30
46.22    37
46.24    21
46.26    39
46.28    34
46.3     32
46.32    25
46.34    31
46.36    29
46.38    30
46.4     25
46.42    36
46.44    30
46.46    28
46.48    25
46.5     25
46.52    18
46.54    26
46.56    22
46.58    27
46.6     27
46.62    29
46.64    31
46.66    35
46.68    22
46.7     29
46.72    23
46.74    21
46.76    24
46.78    28
46.8     16
46.82    24
46.84    35
46.86    22
46.88    28
46.9     30
46.92    23
46.94    23
46.96    20
46.98    27
47.0     44
47.02    28
47.04    27
47.06    19
47.08    31
47.1     32
47.12    26
47.14    28
47.16    34
47.18    28
47.2     27
47.22    29
47.24    23
47.26    21
47.28    27
47.3     28
47.32    29
47.34    25
47.36    23
47.38    39
47.4     21
47.42    33
47.44    35
47.46    32
47.48    20
47.5     29
47.52    25
47.54    35
47.56    21
47.58    29
47.6     21
47.62    32
47.64    28
47.66    29
47.68    18
47.7     18
47.72    23
47.74    23
47.76    25
47.78    18
47.8     31
47.82    25
47.84    27
47.86    28
47.88    27
47.9     31
47.92    27
47.94    24
47.96    33
47.98    35
48.0     28
48.02    31
48.04    33
48.06    25
48.08    22
48.1     26
48.12    34
48.14    27
48.16    32
48.18    30
48.2     30
48.22    26
48.24    35
48.26    35
48.28    28
48.3     26
48.32    33
48.34    28
48.36    34
48.38    31
48.4     33
48.42    33
48.44    23
48.46    38
48.48    24
48.5     23
48.52    28
48.54    24
48.56    24
48.58    25
48.6     22
48.62    24
48.64    33
48.66    24
48.68    25
48.7     26
48.72    30
48.74    23
48.76    28
48.78    33
48.8     25
48.82    23
48.84    21
48.86    22
48.88    22
48.9     25
48.92    23
48.94    19
48.96    21
48.98    25
49.0     23
49.02    32
49.04    23
49.06    23
49.08    30
49.1     21
49.12    23
49.14    37
49.16    21
49.18    25
49.2     25
49.22    26
49.24    22
49.26    41
49.28    20
49.3     21
49.32    19
49.34    35
49.36    27
49.38    18
49.4     33
49.42    27
49.44    17
49.46    19
49.48    26
49.5     20
49.52    18
49.54    27
49.56    27
49.58    26
49.6     29
49.62    28
49.64    29
49.66    24
49.68    28
49.7     28
49.72    28
49.74    22
49.76    31
49.78    35
49.8     24
49.82    26
49.84    30
49.86    26
49.88    20
49.9     23
49.92    33
49.94    24
49.96    33
49.98    26
50.0     20
50.02    22
50.04    23
50.06    29
50.08    31
50.1     28
50.12    27
50.14    22
50.16    20
50.18    24
50.2     18
50.22    22
50.24    24
50.26    20
50.28    27
50.3     29
50.32    25
50.34    26
50.36    29
50.38    21
50.4     22
50.42    29
50.44    24
50.46    24
50.48    24
50.5     27
50.52    25
50.54    37
50.56    17
50.58    25
50.6     28
50.62    29
50.64    31
50.66    24
50.68    22
50.7     19
50.72    33
50.74    25
50.76    24
50.78    23
50.8     31
50.82    31
50.84    27
50.86    26
50.88    34
50.9     31
50.92    26
50.94    20
50.96    28
50.98    27
51.0     36
51.02    39
51.04    26
51.06    25
51.08    29
51.1     34
51.12    27
51.14    21
51.16    27
51.18    32
51.2     25
51.22    24
51.24    20
51.26    33
51.28    21
51.3     35
51.32    15
51.34    23
51.36    23
51.38    25
51.4     43
51.42    26
51.44    27
51.46    30
51.48    20
51.5     17
51.52    24
51.54    16
51.56    24
51.58    16
51.6     20
51.62    32
51.64    30
51.66    22
51.68    27
51.7     9
51.72    26
51.74    24
51.76    28
51.78    18
51.8     21
51.82    25
51.84    20
51.86    32
51.88    30
51.9     29
51.92    28
51.94    27
51.96    26
51.98    36
52.0     30
52.02    37
52.04    28
52.06    31
52.08    24
52.1     41
52.12    29
52.14    30
52.16    41
52.18    29
52.2     47
52.22    50
52.24    79
52.26    121
52.28    146
52.3     198
52.32    267
52.34    279
52.36    225
52.38    185
52.4     158
52.42    111
52.44    128
52.46    142
52.48    162
52.5     119
52.52    87
52.54    83
52.56    58
52.58    58
52.6     52
52.62    44
52.64    43
52.66    44
52.68    32
52.7     25
52.72    27
52.74    29
52.76    27
52.78    29
52.8     32
52.82    29
52.84    27
52.86    26
52.88    25
52.9     27
52.92    22
52.94    32
52.96    28
52.98    20
53.0     22
53.02    25
53.04    30
53.06    23
53.08    26
53.1     26
53.12    25
53.14    24
53.16    26
53.18    25
53.2     22
53.22    29
53.24    20
53.26    21
53.28    35
53.3     23
53.32    20
53.34    21
53.36    30
53.38    29
53.4     34
53.42    25
53.44    28
53.46    24
53.48    22
53.5     24
53.52    30
53.54    25
53.56    29
53.58    24
53.6     30
53.62    26
53.64    23
53.66    32
53.68    31
53.7     30
53.72    28
53.74    27
53.76    29
53.78    26
53.8     30
53.82    27
53.84    29
53.86    23
53.88    19
53.9     31
53.92    28
53.94    25
53.96    17
53.98    20
54.0     29
54.02    20
54.04    27
54.06    27
54.08    22
54.1     25
54.12    24
54.14    27
54.16    21
54.18    27
54.2     21
54.22    23
54.24    25
54.26    19
54.28    26
54.3     19
54.32    25
54.34    30
54.36    26
54.38    25
54.4     37
54.42    30
54.44    23
54.46    21
54.48    26
54.5     25
54.52    27
54.54    25
54.56    27
54.58    28
54.6     25
54.62    29
54.64    25
54.66    25
54.68    29
54.7     33
54.72    29
54.74    24
54.76    29
54.78    31
54.8     48
54.82    57
54.84    54
54.86    63
54.88    63
54.9     56
54.92    45
54.94    34
54.96    41
54.98    37
55.0     47
55.02    40
55.04    33
55.06    30
55.08    30
55.1     21
55.12    27
55.14    30
55.16    27
55.18    14
55.2     25
55.22    29
55.24    29
55.26    30
55.28    31
55.3     24
55.32    27
55.34    18
55.36    33
55.38    28
55.4     27
55.42    22
55.44    25
55.46    18
55.48    25
55.5     31
55.52    28
55.54    25
55.56    25
55.58    23
55.6     34
55.62    21
55.64    24
55.66    21
55.68    25
55.7     20
55.72    16
55.74    24
55.76    22
55.78    21
55.8     22
55.82    19
55.84    31
55.86    28
55.88    24
55.9     31
55.92    22
55.94    31
55.96    26
55.98    25
56.0     29
56.02    27
56.04    19
56.06    31
56.08    22
56.1     24
56.12    31
56.14    21
56.16    17
56.18    19
56.2     28
56.22    24
56.24    16
56.26    24
56.28    19
56.3     29
56.32    23
56.34    24
56.36    26
56.38    32
56.4     31
56.42    19
56.44    30
56.46    26
56.48    28
56.5     25
56.52    25
56.54    19
56.56    25
56.58    38
56.6     28
56.62    24
56.64    21
56.66    34
56.68    18
56.7     21
56.72    29
56.74    18
56.76    24
56.78    23
56.8     20
56.82    25
56.84    17
56.86    23
56.88    22
56.9     27
56.92    28
56.94    31
56.96    26
56.98    29
57.0     22
57.02    26
57.04    33
57.06    20
57.08    23
57.1     26
57.12    25
57.14    20
57.16    31
57.18    32
57.2     27
57.22    21
57.24    29
57.26    25
57.28    32
57.3     23
57.32    21
57.34    32
57.36    32
57.38    33
57.4     33
57.42    39
57.44    31
57.46    32
57.48    33
57.5     31
57.52    29
57.54    34
57.56    38
57.58    27
57.6     31
57.62    23
57.64    31
57.66    33
57.68    42
57.7     32
57.72    24
57.74    27
57.76    24
57.78    29
57.8     21
57.82    22
57.84    33
57.86    27
57.88    34
57.9     38
57.92    28
57.94    26
57.96    23
57.98    28
58.0     28
58.02    35
58.04    36
58.06    26
58.08    35
58.1     41
58.12    39
58.14    34
58.16    39
58.18    28
58.2     30
58.22    26
58.24    30
58.26    31
58.28    36
58.3     30
58.32    39
58.34    35
58.36    36
58.38    30
58.4     26
58.42    22
58.44    34
58.46    26
58.48    25
58.5     29
58.52    25
58.54    25
58.56    26
58.58    22
58.6     23
58.62    24
58.64    21
58.66    24
58.68    22
58.7     30
58.72    22
58.74    25
58.76    23
58.78    32
58.8     21
58.82    24
58.84    20
58.86    23
58.88    18
58.9     26
58.92    23
58.94    29
58.96    33
58.98    31
59.0     23
59.02    25
59.04    29
59.06    33
59.08    30
59.1     33
59.12    31
59.14    31
59.16    26
59.18    40
59.2     32
59.22    29
59.24    26
59.26    23
59.28    22
59.3     26
59.32    36
59.34    31
59.36    25
59.38    24
59.4     25
59.42    26
59.44    28
59.46    33
59.48    22
59.5     32
59.52    27
59.54    32
59.56    30
59.58    27
59.6     29
59.62    31
59.64    36
59.66    32
59.68    19
59.7     27
59.72    24
59.74    25
59.76    29
59.78    25
59.8     25
59.82    21
59.84    28
59.86    26
59.88    22
59.9     27
59.92    27
59.94    31
59.96    36
59.98    29
60.0     27
60.02    23
60.04    28
60.06    18
60.08    25
60.1     20
60.12    32
60.14    30
60.16    23
60.18    29
60.2     28
60.22    26
60.24    21
60.26    20
60.28    22
60.3     27
60.32    31
60.34    27
60.36    17
60.38    35
60.4     24
60.42    22
60.44    27
60.46    17
60.48    18
60.5     24
60.52    32
60.54    25
60.56    29
60.58    18
60.6     33
60.62    23
60.64    28
60.66    23
60.68    24
60.7     26
60.72    24
60.74    36
60.76    29
60.78    32
60.8     29
60.82    24
60.84    25
60.86    31
60.88    23
60.9     20
60.92    25
60.94    20
60.96    16
60.98    27
61.0     23
61.02    28
61.04    18
61.06    30
61.08    27
61.1     25
61.12    21
61.14    22
61.16    21
61.18    26
61.2     35
61.22    22
61.24    24
61.26    26
61.28    29
61.3     18
61.32    26
61.34    22
61.36    26
61.38    27
61.4     19
61.42    39
61.44    26
61.46    22
61.48    26
61.5     29
61.52    19
61.54    24
61.56    23
61.58    21
61.6     26
61.62    25
61.64    25
61.66    23
61.68    25
61.7     18
61.72    27
61.74    25
61.76    24
61.78    22
61.8     30
61.82    25
61.84    28
61.86    21
61.88    25
61.9     25
61.92    25
61.94    32
61.96    20
61.98    17
62.0     24
62.02    32
62.04    24
62.06    24
62.08    34
62.1     37
62.12    21
62.14    23
62.16    19
62.18    25
62.2     16
62.22    25
62.24    23
62.26    31
62.28    24
62.3     26
62.32    35
62.34    25
62.36    30
62.38    19
62.4     39
62.42    22
62.44    21
62.46    26
62.48    23
62.5     28
62.52    29
62.54    30
62.56    30
62.58    23
62.6     27
62.62    27
62.64    29
62.66    20
62.68    19
62.7     30
62.72    35
62.74    23
62.76    24
62.78    27
62.8     28
62.82    24
62.84    36
62.86    31
62.88    26
62.9     39
62.92    23
62.94    34
62.96    30
62.98    19
63.0     29
63.02    32
63.04    35
63.06    26
63.08    28
63.1     30
63.12    24
63.14    31
63.16    37
63.18    34
63.2     40
63.22    35
63.24    29
63.26    37
63.28    33
63.3     34
63.32    36
63.34    33
63.36    32
63.38    25
63.4     33
63.42    23
63.44    23
63.46    22
63.48    34
63.5     29
63.52    32
63.54    19
63.56    30
63.58    31
63.6     32
63.62    23
63.64    27
63.66    43
63.68    33
63.7     42
63.72    24
63.74    38
63.76    28
63.78    37
63.8     29
63.82    44
63.84    34
63.86    47
63.88    60
63.9     43
63.92    56
63.94    63
63.96    55
63.98    60
64.0     65
64.02    67
64.04    81
64.06    72
64.08    83
64.1     104
64.12    131
64.14    143
64.16    195
64.18    256
64.2     404
64.22    584
64.24    958
64.26    1137
64.28    1387
64.3     1473
64.32    1214
64.34    1002
64.36    840
64.38    646
64.4     600
64.42    602
64.44    698
64.46    679
64.48    693
64.5     626
64.52    535
64.54    370
64.56    281
64.58    207
64.6     153
64.62    121
64.64    95
64.66    62
64.68    62
64.7     50
64.72    51
64.74    55
64.76    43
64.78    37
64.8     31
64.82    40
64.84    32
64.86    33
64.88    23
64.9     29
64.92    31
64.94    26
64.96    23
64.98    28
65.0     38
65.02    36
65.04    20
65.06    24
65.08    32
65.1     33
65.12    27
65.14    28
65.16    27
65.18    29
65.2     36
65.22    25
65.24    24
65.26    29
65.28    24
65.3     27
65.32    25
65.34    20
65.36    23
65.38    28
65.4     19
65.42    27
65.44    23
65.46    34
65.48    26
65.5     24
65.52    27
65.54    19
65.56    34
65.58    26
65.6     23
65.62    17
65.64    25
65.66    28
65.68    29
65.7     30
65.72    23
65.74    28
65.76    22
65.78    20
65.8     22
65.82    26
65.84    27
65.86    22
65.88    30
65.9     33
65.92    33
65.94    24
65.96    24
65.98    23
66.0     23
66.02    38
66.04    23
66.06    27
66.08    27
66.1     24
66.12    21
66.14    19
66.16    27
66.18    20
66.2     21
66.22    28
66.24    27
66.26    26
66.28    32
66.3     20
66.32    27
66.34    34
66.36    24
66.38    36
66.4     27
66.42    34
66.44    33
66.46    32
66.48    27
66.5     37
66.52    24
66.54    25
66.56    28
66.58    28
66.6     39
66.62    27
66.64    31
66.66    25
66.68    30
66.7     26
66.72    38
66.74    32
66.76    28
66.78    27
66.8     22
66.82    17
66.84    22
66.86    26
66.88    24
66.9     18
66.92    21
66.94    18
66.96    27
66.98    25
67.0     30
67.02    31
67.04    19
67.06    19
67.08    22
67.1     33
67.12    26
67.14    18
67.16    29
67.18    18
67.2     30
67.22    27
67.24    25
67.26    29
67.28    23
67.3     20
67.32    24
67.34    32
67.36    35
67.38    23
67.4     35
67.42    25
67.44    27
67.46    28
67.48    32
67.5     25
67.52    27
67.54    49
67.56    37
67.58    26
67.6     29
67.62    42
67.64    19
67.66    25
67.68    38
67.7     31
67.72    24
67.74    39
67.76    23
67.78    28
67.8     23
67.82    36
67.84    30
67.86    27
67.88    32
67.9     37
67.92    29
67.94    26
67.96    28
67.98    23
68.0     29
68.02    34
68.04    31
68.06    33
68.08    36
68.1     31
68.12    41
68.14    35
68.16    28
68.18    35
68.2     34
68.22    38
68.24    28
68.26    33
68.28    31
68.3     26
68.32    31
68.34    36
68.36    26
68.38    39
68.4     19
68.42    21
68.44    31
68.46    37
68.48    25
68.5     34
68.52    20
68.54    37
68.56    21
68.58    25
68.6     25
68.62    25
68.64    26
68.66    23
68.68    21
68.7     29
68.72    16
68.74    26
68.76    24
68.78    25
68.8     31
68.82    25
68.84    29
68.86    29
68.88    17
68.9     26
68.92    29
68.94    25
68.96    14
68.98    34
69.0     36
69.02    22
69.04    36
69.06    29
69.08    21
69.1     25
69.12    26
69.14    16
69.16    19
69.18    25
69.2     29
69.22    34
69.24    22
69.26    23
69.28    13
69.3     27
69.32    27
69.34    25
69.36    20
69.38    30
69.4     16
69.42    29
69.44    27
69.46    28
69.48    25
69.5     31
69.52    29
69.54    34
69.56    27
69.58    30
69.6     31
69.62    21
69.64    25
69.66    15
69.68    15
69.7     37
69.72    27
69.74    27
69.76    29
69.78    22
69.8     21
69.82    26
69.84    21
69.86    29
69.88    26
69.9     24
69.92    29
69.94    22
69.96    23
69.98    21
70.0     27
70.02    37
70.04    26
70.06    23
70.08    25
70.1     26
70.12    24
70.14    41
70.16    29
70.18    26
70.2     33
70.22    37
70.24    44
70.26    35
70.28    33
70.3     44
70.32    46
70.34    52
70.36    35
70.38    42
70.4     61
70.42    50
70.44    48
70.46    50
70.48    63
70.5     59
70.52    60
70.54    54
70.56    47
70.58    57
70.6     65
70.62    49
70.64    56
70.66    40
70.68    39
70.7     56
70.72    52
70.74    53
70.76    46
70.78    53
70.8     56
70.82    74
70.84    92
70.86    102
70.88    103
70.9     93
70.92    93
70.94    79
70.96    58
70.98    56
71.0     49
71.02    52
71.04    54
71.06    64
71.08    51
71.1     63
71.12    55
71.14    63
71.16    51
71.18    46
71.2     27
71.22    40
71.24    36
71.26    29
71.28    30
71.3     19
71.32    31
71.34    24
71.36    27
71.38    30
71.4     28
71.42    24
71.44    30
71.46    19
71.48    34
71.5     32
71.52    34
71.54    32
71.56    31
71.58    26
71.6     35
71.62    17
71.64    21
71.66    28
71.68    35
71.7     22
71.72    29
71.74    30
71.76    26
71.78    29
71.8     25
71.82    27
71.84    16
71.86    28
71.88    33
71.9     31
71.92    30
71.94    25
71.96    32
71.98    26
72.0     25
72.02    17
72.04    23
72.06    26
72.08    36
72.1     28
72.12    33
72.14    33
72.16    35
72.18    25
72.2     23
72.22    32
72.24    43
72.26    30
72.28    15
72.3     35
72.32    26
72.34    37
72.36    35
72.38    32
72.4     20
72.42    38
72.44    30
72.46    28
72.48    27
72.5     30
72.52    31
72.54    26
72.56    25
72.58    25
72.6     28
72.62    20
72.64    34
72.66    22
72.68    21
72.7     25
72.72    27
72.74    26
72.76    30
72.78    31
72.8     20
72.82    25
72.84    30
72.86    27
72.88    34
72.9     26
72.92    28
72.94    33
72.96    36
72.98    45
73.0     45
73.02    55
73.04    60
73.06    61
73.08    55
73.1     50
73.12    52
73.14    36
73.16    37
73.18    40
73.2     27
73.22    50
73.24    36
73.26    45
73.28    38
73.3     34
73.32    38
73.34    24
73.36    32
73.38    17
73.4     32
73.42    29
73.44    23
73.46    30
73.48    25
73.5     27
73.52    28
73.54    20
73.56    27
73.58    27
73.6     26
73.62    33
73.64    14
73.66    25
73.68    24
73.7     20
73.72    23
73.74    22
73.76    24
73.78    20
73.8     22
73.82    29
73.84    22
73.86    31
73.88    27
73.9     24
73.92    32
73.94    27
73.96    23
73.98    33
74.0     15
74.02    14
74.04    19
74.06    29
74.08    36
74.1     27
74.12    21
74.14    18
74.16    16
74.18    39
74.2     22
74.22    30
74.24    28
74.26    27
74.28    21
74.3     22
74.32    20
74.34    31
74.36    23
74.38    25
74.4     21
74.42    23
74.44    23
74.46    24
74.48    24
74.5     29
74.52    15
74.54    25
74.56    19
74.58    29
74.6     25
74.62    21
74.64    29
74.66    35
74.68    20
74.7     17
74.72    24
74.74    20
74.76    29
74.78    25
74.8     31
74.82    24
74.84    19
74.86    25
74.88    27
74.9     29
74.92    24
74.94    27
74.96    19
74.98    15
75.0     19
75.02    28
75.04    23
75.06    33
75.08    32
75.1     19
75.12    22
75.14    32
75.16    20
75.18    23
75.2     25
75.22    23
75.24    23
75.26    20
75.28    28
75.3     21
75.32    41
75.34    22
75.36    23
75.38    27
75.4     18
75.42    22
75.44    22
75.46    34
75.48    23
75.5     17
75.52    25
75.54    23
75.56    29
75.58    26
75.6     26
75.62    23
75.64    27
75.66    27
75.68    22
75.7     23
75.72    24
75.74    28
75.76    18
75.78    19
75.8     22
75.82    20
75.84    30
75.86    31
75.88    35
75.9     24
75.92    23
75.94    19
75.96    31
75.98    21
76.0     19
76.02    28
76.04    28
76.06    19
76.08    28
76.1     27
76.12    15
76.14    26
76.16    26
76.18    25
76.2     23
76.22    21
76.24    20
76.26    23
76.28    16
76.3     34
76.32    26
76.34    23
76.36    27
76.38    24
76.4     27
76.42    29
76.44    25
76.46    27
76.48    27
76.5     15
76.52    20
76.54    24
76.56    23
76.58    21
76.6     25
76.62    27
76.64    31
76.66    38
76.68    29
76.7     25
76.72    30
76.74    31
76.76    22
76.78    28
76.8     30
76.82    19
76.84    31
76.86    21
76.88    23
76.9     28
76.92    21
76.94    30
76.96    24
76.98    27
77.0     24
77.02    23
77.04    32
77.06    33
77.08    23
77.1     24
77.12    31
77.14    27
77.16    28
77.18    27
77.2     28
77.22    14
77.24    26
77.26    18
77.28    28
77.3     22
77.32    31
77.34    32
77.36    17
77.38    28
77.4     28
77.42    23
77.44    31
77.46    30
77.48    24
77.5     32
77.52    26
77.54    28
77.56    18
77.58    27
77.6     28
77.62    19
77.64    30
77.66    29
77.68    23
77.7     25
77.72    21
77.74    27
77.76    31
77.78    18
77.8     26
77.82    24
77.84    32
77.86    27
77.88    27
77.9     31
77.92    33
77.94    23
77.96    29
77.98    21
78.0     23
78.02    27
78.04    29
78.06    21
78.08    25
78.1     18
78.12    24
78.14    23
78.16    26
78.18    24
78.2     26
78.22    20
78.24    24
78.26    30
78.28    21
78.3     15
78.32    26
78.34    17
78.36    27
78.38    26
78.4     24
78.42    34
78.44    28
78.46    16
78.48    19
78.5     30
78.52    25
78.54    24
78.56    36
78.58    22
78.6     28
78.62    23
78.64    22
78.66    23
78.68    24
78.7     22
78.72    27
78.74    23
78.76    19
78.78    26
78.8     20
78.82    24
78.84    28
78.86    18
78.88    30
78.9     21
78.92    22
78.94    19
78.96    23
78.98    27
79.0     24
79.02    30
79.04    18
79.06    32
79.08    32
79.1     39
79.12    31
79.14    23
79.16    30
79.18    42
79.2     27
79.22    34
79.24    38
79.26    30
79.28    19
79.3     21
79.32    22
79.34    33
79.36    28
79.38    33
79.4     18
79.42    31
79.44    26
79.46    26
79.48    30
79.5     29
79.52    27
79.54    25
79.56    29
79.58    27
79.6     26
79.62    34
79.64    30
79.66    25
79.68    16
79.7     30
79.72    30
79.74    27
79.76    25
79.78    28
79.8     31
79.82    30
79.84    27
79.86    35
79.88    35
79.9     22
79.92    33
79.94    35
79.96    30
79.98    22
80.0     30
80.02    26
80.04    27
80.06    31
80.08    35
80.1     32
80.12    29
80.14    35
80.16    38
80.18    35
80.2     32
80.22    24
80.24    35
80.26    41
80.28    30
80.3     19
80.32    48
80.34    33
80.36    23
80.38    39
80.4     31
80.42    29
80.44    38
80.46    37
80.48    32
80.5     22
80.52    39
80.54    38
80.56    25
80.58    36
80.6     27
80.62    31
80.64    34
80.66    39
80.68    38
80.7     33
80.72    39
80.74    45
80.76    27
80.78    39
80.8     33
80.82    51
80.84    50
80.86    48
80.88    51
80.9     79
80.92    54
80.94    80
80.96    74
80.98    74
81.0     63
81.02    78
81.04    70
81.06    81
81.08    93
81.1     73
81.12    100
81.14    115
81.16    127
81.18    137
81.2     152
81.22    208
81.24    272
81.26    348
81.28    519
81.3     813
81.32    1089
81.34    1335
81.36    1534
81.38    1693
81.4     1516
81.42    1381
81.44    1204
81.46    920
81.48    714
81.5     649
81.52    567
81.54    568
81.56    596
81.58    700
81.6     754
81.62    767
81.64    741
81.66    671
81.68    595
81.7     483
81.72    366
81.74    278
81.76    208
81.78    201
81.8     142
81.82    121
81.84    113
81.86    74
81.88    79
81.9     65
81.92    55
81.93    57
81.96    48
81.98    42
82.0     42
82.02    33
82.04    48
82.06    39
82.08    23
82.1     40
82.12    28
82.14    33
82.16    28
82.18    41
82.2     35
82.22    39
82.24    35
82.26    28
82.28    29
82.3     29
82.32    28
82.34    24
82.36    20
82.38    20
82.4     25
82.42    29
82.43    31
82.46    29
82.48    27
82.5     27
82.52    21
82.54    22
82.56    25
82.58    40
82.6     27
82.62    26
82.64    29
82.66    32
82.68    35
82.7     23
82.72    30
82.74    35
82.76    26
82.78    22
82.8     21
82.82    26
82.84    25
82.86    25
82.88    34
82.9     33
82.92    31
82.93    25
82.96    28
82.98    25
83.0     22
83.02    23
83.04    40
83.06    21
83.08    14
83.1     15
83.12    24
83.14    39
83.16    15
83.18    24
83.2     25
83.22    18
83.24    23
83.26    25
83.28    33
83.3     25
83.32    19
83.34    28
83.36    20
83.38    16
83.4     27
83.42    27
83.43    20
83.46    12
83.48    26
83.5     27
83.52    32
83.54    29
83.56    32
83.58    26
83.6     26
83.62    29
83.64    16
83.66    29
83.68    25
83.7     24
83.72    27
83.74    23
83.76    26
83.78    16
83.8     25
83.82    30
83.84    19
83.86    25
83.88    20
83.9     20
83.92    24
83.93    24
83.96    25
83.98    32
84.0     25
84.02    16
84.04    26
84.06    17
84.08    25
84.1     29
84.12    29
84.14    19
84.16    30
84.18    30
84.2     25
84.22    22
84.24    18
84.26    20
84.28    25
84.3     39
84.32    20
84.34    28
84.36    24
84.38    22
84.4     22
84.42    24
84.43    19
84.46    28
84.48    36
84.5     29
84.52    21
84.54    21
84.56    25
84.58    32
84.6     24
84.62    25
84.64    26
84.66    33
84.68    34
84.7     29
84.72    35
84.74    20
84.76    22
84.78    27
84.8     26
84.82    32
84.84    28
84.86    30
84.88    26
84.9     24
84.92    28
84.93    32
84.96    40
84.98    24
85.0     39
85.02    23
85.04    35
85.06    34
85.08    28
85.1     25
85.12    27
85.14    30
85.16    29
85.18    28
85.2     39
85.22    26
85.24    26
85.26    33
85.28    31
85.3     37
85.32    35
85.34    28
85.36    32
85.38    23
85.4     27
85.42    31
85.43    25
85.46    26
85.48    32
85.5     30
85.52    30
85.54    25
85.56    20
85.58    43
85.6     23
85.62    22
85.64    29
85.66    24
85.68    24
85.7     24
85.72    22
85.74    27
85.76    17
85.78    17
85.8     21
85.82    27
85.84    20
85.86    25
85.88    23
85.9     33
85.92    21
85.93    27
85.96    26
85.98    23
86.0     23
86.02    30
86.04    11
86.06    38
86.08    27
86.1     27
86.12    17
86.14    23
86.16    22
86.18    24
86.2     25
86.22    16
86.24    24
86.26    23
86.28    34
86.3     18
86.32    25
86.34    28
86.36    25
86.38    20
86.4     16
86.42    25
86.43    26
86.46    24
86.48    19
86.5     30
86.52    23
86.54    18
86.56    29
86.58    35
86.6     43
86.62    21
86.64    22
86.66    21
86.68    26
86.7     36
86.72    23
86.74    22
86.76    30
86.78    31
86.8     29
86.82    26
86.84    24
86.86    24
86.88    26
86.9     18
86.92    19
86.93    29
86.96    34
86.98    27
87.0     31
87.02    23
87.04    32
87.06    26
87.08    35
87.1     31
87.12    26
87.14    25
87.16    28
87.18    31
87.2     26
87.22    26
87.24    28
87.26    28
87.28    32
87.3     25
87.32    35
87.34    38
87.36    29
87.38    35
87.4     33
87.42    49
87.43    63
87.46    48
87.48    88
87.5     66
87.52    67
87.54    69
87.56    52
87.58    49
87.6     54
87.62    40
87.64    27
87.66    45
87.68    46
87.7     33
87.72    51
87.74    44
87.76    42
87.78    53
87.8     41
87.82    46
87.84    42
87.86    44
87.88    40
87.9     22
87.92    33
87.93    32
87.96    38
87.98    32
88.0     23
88.02    24
88.04    31
88.06    28
88.08    22
88.1     28
88.12    27
88.14    29
88.16    28
88.18    22
88.2     27
88.22    19
88.24    16
88.26    31
88.28    31
88.3     28
88.32    24
88.34    18
88.36    26
88.38    28
88.4     34
88.42    19
88.43    27
88.46    30
88.48    21
88.5     31
88.52    23
88.54    16
88.56    18
88.58    27
88.6     33
88.62    24
88.64    23
88.66    27
88.68    24
88.7     18
88.72    23
88.74    28
88.76    32
88.78    20
88.8     20
88.82    21
88.84    28
88.86    24
88.88    21
88.9     24
88.92    22
88.93    22
88.96    31
88.98    18
89.0     25
89.02    25
89.04    37
89.06    25
89.08    31
89.1     23
89.12    20
89.14    24
89.16    30
89.18    21
89.2     32
89.22    31
89.24    28
89.26    27
89.28    22
89.3     28
89.32    26
89.34    28
89.36    20
89.38    21
89.4     20
89.42    24
89.43    22
89.46    21
89.48    25
89.5     23
89.52    24
89.54    21
89.56    37
89.58    29
89.6     17
89.62    33
89.64    31
89.66    28
89.68    29
89.7     24
89.72    30
89.74    22
89.76    35
89.78    26
89.8     25
89.82    35
89.84    25
89.86    31
89.88    22
89.9     26
89.92    24
89.93    24
89.96    27
89.98    30
90.0     29
90.02    28
90.04    24
90.06    20
90.08    26
90.1     19
90.12    21
90.14    26
90.16    29
90.18    33
90.2     26
90.22    26
90.24    29
90.26    31
90.28    19
90.3     21
90.32    23
90.34    18
90.36    27
90.38    23
90.4     20
90.42    31
90.43    18
90.46    20
90.48    39
90.5     20
90.52    23
90.54    16
90.56    22
90.58    20
90.6     22
90.62    23
90.64    19
90.66    17
90.68    29
90.7     18
90.72    23
90.74    20
90.76    16
90.78    31
90.8     20
90.82    25
90.84    22
90.86    31
90.88    24
90.9     20
90.92    21
90.93    26
90.96    31
90.98    27
91.0     34
91.02    23
91.04    23
91.06    23
91.08    19
91.1     22
91.12    25
91.14    17
91.16    19
91.18    28
91.2     22
91.22    21
91.24    21
91.26    21
91.28    28
91.3     20
91.32    24
91.34    21
91.36    24
91.38    29
91.4     32
91.42    19
91.43    26
91.46    24
91.48    22
91.5     30
91.52    21
91.54    24
91.56    29
91.58    24
91.6     19
91.62    22
91.64    31
91.66    18
91.68    28
91.7     20
91.72    33
91.74    29
91.76    27
91.78    25
91.8     26
91.82    16
91.84    25
91.86    17
91.88    25
91.9     21
91.92    25
91.93    26
91.96    32
91.98    30
92.0     26
92.02    24
92.04    24
92.06    22
92.08    22
92.1     30
92.12    24
92.14    27
92.16    19
92.18    22
92.2     19
92.22    22
92.24    29
92.26    24
92.28    15
92.3     15
92.32    24
92.34    22
92.36    22
92.38    26
92.4     25
92.42    24
92.43    21
92.46    18
92.48    24
92.5     24
92.52    26
92.54    15
92.56    15
92.58    23
92.6     23
92.62    19
92.64    32
92.66    21
92.68    12
92.7     17
92.72    24
92.74    23
92.76    23
92.78    17
92.8     26
92.82    18
92.84    31
92.86    22
92.88    25
92.9     23
92.92    17
92.93    25
92.96    25
92.98    26
93.0     23
93.02    17
93.04    20
93.06    23
93.08    27
93.1     18
93.12    31
93.14    22
93.16    26
93.18    28
93.2     21
93.22    19
93.24    13
93.26    23
93.28    27
93.3     27
93.32    30
93.34    22
93.36    21
93.38    22
93.4     23
93.42    31
93.43    26
93.46    26
93.48    24
93.5     29
93.52    21
93.54    21
93.56    22
93.58    22
93.6     29
93.62    29
93.64    27
93.66    31
93.68    19
93.7     18
93.72    18
93.74    24
93.76    20
93.78    13
93.8     25
93.82    21
93.84    24
93.86    23
93.88    25
93.9     22
93.92    19
93.93    28
93.96    32
93.98    30
94.0     24
94.02    23
94.04    37
94.06    22
94.08    24
94.1     23
94.12    26
94.14    21
94.16    27
94.18    32
94.2     13
94.22    28
94.24    20
94.26    37
94.28    24
94.3     23
94.32    25
94.34    24
94.36    30
94.38    19
94.4     26
94.42    21
94.43    23
94.46    31
94.48    26
94.5     23
94.52    27
94.54    32
94.56    30
94.58    25
94.6     25
94.62    21
94.64    14
94.66    25
94.68    25
94.7     25
94.72    18
94.74    24
94.76    35
94.78    26
94.8     21
94.82    23
94.84    21
94.86    26
94.88    28
94.9     25
94.92    25
94.93    32
94.96    22
94.98    16
95.0     19
95.02    22
95.04    25
95.06    31
95.08    21
95.1     12
95.12    31
95.14    25
95.16    25
95.18    23
95.2     27
95.22    29
95.24    31
95.25    25
95.28    32
95.3     33
95.32    29
95.34    35
95.36    28
95.38    35
95.4     30
95.42    29
95.43    20
95.46    20
95.48    22
95.5     17
95.52    25
95.54    34
95.56    27
95.58    27
95.6     35
95.62    29
95.64    39
95.66    38
95.68    29
95.7     34
95.72    35
95.74    24
95.75    19
95.78    25
95.8     30
95.82    21
95.84    34
95.86    34
95.88    28
95.9     22
95.92    28
95.93    23
95.96    20
95.98    26
96.0     20
96.02    23
96.04    23
96.06    20
96.08    32
96.1     22
96.12    27
96.14    26
96.16    20
96.18    20
96.2     34
96.22    19
96.24    21
96.25    21
96.28    25
96.3     17
96.32    21
96.34    24
96.36    30
96.38    20
96.4     26
96.42    45
96.43    22
96.46    31
96.48    26
96.5     35
96.52    25
96.54    27
96.56    25
96.58    25
96.6     28
96.62    30
96.64    19
96.66    25
96.68    34
96.7     22
96.72    24
96.74    42
96.75    27
96.78    24
96.8     34
96.82    24
96.84    31
96.86    33
96.88    31
96.9     26
96.92    33
96.93    37
96.96    24
96.98    30
97.0     27
97.02    30
97.04    25
97.06    45
97.08    28
97.1     39
97.12    39
97.14    42
97.16    38
97.18    39
97.2     31
97.22    34
97.24    42
97.25    41
97.28    38
97.3     40
97.32    41
97.34    39
97.36    49
97.38    48
97.4     47
97.42    67
97.43    60
97.46    69
97.48    86
97.5     83
97.52    115
97.54    152
97.56    187
97.58    265
97.6     394
97.62    547
97.64    591
97.66    693
97.68    706
97.7     631
97.72    582
97.74    492
97.75    437
97.78    316
97.8     311
97.82    271
97.84    219
97.86    213
97.88    179
97.9     200
97.92    209
97.93    258
97.96    291
97.98    330
98.0     309
98.02    318
98.04    297
98.06    270
98.08    239
98.1     193
98.12    157
98.14    123
98.16    126
98.18    95
98.2     74
98.22    81
98.24    62
98.25    52
98.28    67
98.3     54
98.32    35
98.34    46
98.36    40
98.38    29
98.4     35
98.42    18
98.43    33
98.46    20
98.48    33
98.5     23
98.52    34
98.54    41
98.56    33
98.58    30
98.6     27
98.62    26
98.64    19
98.66    36
98.68    31
98.7     19
98.72    22
98.74    26
98.75    30
98.78    28
98.8     32
98.82    27
98.84    21
98.86    23
98.88    28
98.9     36
98.92    31
98.93    30
98.96    25
98.98    22
99.0     30
99.02    29
99.04    25
99.06    40
99.08    26
99.1     34
99.12    18
99.14    22
99.16    25
99.18    24
99.2     23
99.22    26
99.24    22
99.25    24
99.28    22
99.3     23
99.32    26
99.34    22
99.36    15
99.38    27
99.4     23
99.42    22
99.43    20
99.46    26
99.48    18
99.5     21
99.52    35
99.54    25
99.56    19
99.58    20
99.6     27
99.62    26
99.64    28
99.66    25
99.68    20
99.7     25
99.72    21
99.74    21
99.75    29
99.78    20
99.8     26
99.82    18
99.84    33
99.86    22
99.88    31
99.9     27
99.92    21
99.93    14
99.96    17
99.98    20
100.0    25
100.02   24
100.04   25
100.06   22
100.08   28
100.1    16
100.12   30
100.14   24
100.16   34
100.18   22
100.2    30
100.22   26
100.24   24
100.26   25
100.28   24
100.3    15
100.32   23
100.34   23
100.36   23
100.38   39
100.4    24
100.42   28
100.44   25
100.46   18
100.48   36
100.5    19
100.52   19
100.54   28
100.56   31
100.58   22
100.6    30
100.62   33
100.64   14
100.66   24
100.68   29
100.7    19
100.72   27
100.74   23
100.76   32
100.78   18
100.8    38
100.82   23
100.84   22
100.86   23
100.88   29
100.9    27
100.92   26
100.94   19
100.96   20
100.98   29
101.0    21
101.02   29
101.04   29
101.06   23
101.08   32
101.1    31
101.12   16
101.14   20
101.16   22
101.18   31
101.2    25
101.22   26
101.24   23
101.26   30
101.28   31
101.3    36
101.32   26
101.34   22
101.36   32
101.38   21
101.4    25
101.42   24
101.44   33
101.46   24
101.48   32
101.5    33
101.52   26
101.54   26
101.56   23
101.58   17
101.6    25
101.62   13
101.64   25
101.66   26
101.68   21
101.7    21
101.72   22
101.74   23
101.76   26
101.78   27
101.8    16
101.82   29
101.84   22
101.86   15
101.88   22
101.9    26
101.92   30
101.94   35
101.96   18
101.98   23
102.0    25
102.02   29
102.04   28
102.06   22
102.08   27
102.1    27
102.12   25
102.14   23
102.16   28
102.18   23
102.2    27
102.22   27
102.24   24
102.26   27
102.28   28
102.3    27
102.32   30
102.34   19
102.36   27
102.38   42
102.4    37
102.42   29
102.44   25
102.46   28
102.48   40
102.5    39
102.52   21
102.54   39
102.56   19
102.58   23
102.6    28
102.62   26
102.64   19
102.66   19
102.68   20
102.7    29
102.72   36
102.74   21
102.76   32
102.78   37
102.8    22
102.82   28
102.84   33
102.86   22
102.88   34
102.9    22
102.92   35
102.94   20
102.96   26
102.98   27
103.0    24
103.02   17
103.04   32
103.06   22
103.08   27
103.1    22
103.12   27
103.14   31
103.16   29
103.18   25
103.2    22
103.22   28
103.24   28
103.26   32
103.28   32
103.3    25
103.32   19
103.34   17
103.36   19
103.38   32
103.4    23
103.42   30
103.44   26
103.46   25
103.48   27
103.5    28
103.52   23
103.54   32
103.56   21
103.58   29
103.6    30
103.62   28
103.64   29
103.66   21
103.68   25
103.7    28
103.72   33
103.74   33
103.76   31
103.78   45
103.8    34
103.82   42
103.84   63
103.86   61
103.88   59
103.9    58
103.92   57
103.94   79
103.96   51
103.98   56
104.0    67
104.02   44
104.04   43
104.06   44
104.08   30
104.1    45
104.12   40
104.14   34
104.16   31
104.18   36
104.2    41
104.22   48
104.24   46
104.26   34
104.28   39
104.3    42
104.32   44
104.34   27
104.36   36
104.38   38
104.4    43
104.42   36
104.44   26
104.46   25
104.48   17
104.5    22
104.52   33
104.54   36
104.56   22
104.58   24
104.6    34
104.62   29
104.64   24
104.66   21
104.68   22
104.7    23
104.72   31
104.74   36
104.76   17
104.78   34
104.8    28
104.82   28
104.84   22
104.86   28
104.88   30
104.9    30
104.92   28
104.94   26
104.96   27
104.98   18
105.0    47
105.02   21
105.04   24
105.06   32
105.08   20
105.1    26
105.12   24
105.14   26
105.16   35
105.18   15
105.2    26
105.22   29
105.24   29
105.26   24
105.28   23
105.3    28
105.32   23
105.34   24
105.36   16
105.38   24
105.4    24
105.42   25
105.44   38
105.46   37
105.48   28
105.5    22
105.52   30
105.54   30
105.56   18
105.58   33
105.6    25
105.62   28
105.64   28
105.66   31
105.68   27
105.7    25
105.72   26
105.74   20
105.76   34
105.78   34
105.8    25
105.82   35
105.84   23
105.86   32
105.88   28
105.9    32
105.92   30
105.94   37
105.96   35
105.98   39
106.0    44
106.02   40
106.04   38
106.06   36
106.08   37
106.1    31
106.12   32
106.14   31
106.16   26
106.18   41
106.2    27
106.22   31
106.24   27
106.26   25
106.28   38
106.3    25
106.32   26
106.34   36
106.36   28
106.38   31
106.4    29
106.42   31
106.44   33
106.46   31
106.48   27
106.5    34
106.52   33
106.54   23
106.56   22
106.58   22
106.6    25
106.62   29
106.64   24
106.66   22
106.68   24
106.7    17
106.72   28
106.74   31
106.76   25
106.78   27
106.8    23
106.82   29
106.84   32
106.86   30
106.88   22
106.9    31
106.92   27
106.94   25
106.96   31
106.98   32
107.0    23
107.02   26
107.04   17
107.06   37
107.08   21
107.1    25
107.12   22
107.14   29
107.16   29
107.18   21
107.2    19
107.22   28
107.24   28
107.26   26
107.28   25
107.3    23
107.32   25
107.34   18
107.36   22
107.38   17
107.4    25
107.42   24
107.44   17
107.46   24
107.48   23
107.5    22
107.52   19
107.54   26
107.56   20
107.58   23
107.6    27
107.62   24
107.64   25
107.66   17
107.68   28
107.7    19
107.72   24
107.74   23
107.76   31
107.78   27
107.8    25
107.82   31
107.84   31
107.86   26
107.88   27
107.9    26
107.92   20
107.94   13
107.96   15
107.98   23
108.0    24
108.02   23
108.04   33
108.06   17
108.08   25
108.1    16
108.12   25
108.14   21
108.16   26
108.18   39
108.2    27
108.22   28
108.24   26
108.26   27
108.28   17
108.3    20
108.32   26
108.34   30
108.36   24
108.38   20
108.4    18
108.42   32
108.44   21
108.46   24
108.48   25
108.5    15
108.52   30
108.54   27
108.56   29
108.58   28
108.6    18
108.62   25
108.64   17
108.66   22
108.68   24
108.7    25
108.72   24
108.74   23
108.76   23
108.78   31
108.8    36
108.82   22
108.84   21
108.86   23
108.88   28
108.9    34
108.92   25
108.94   20
108.96   33
108.98   26
109.0    26
109.02   20
109.04   18
109.06   22
109.08   20
109.1    38
109.12   22
109.14   29
109.16   31
109.18   26
109.2    27
109.22   29
109.24   24
109.26   26
109.28   27
109.3    24
109.32   22
109.34   21
109.36   19
109.38   26
109.4    29
109.42   27
109.44   28
109.46   26
109.48   31
109.5    37
109.52   33
109.54   40
109.56   39
109.58   25
109.6    30
109.62   22
109.64   19
109.66   22
109.68   28
109.7    32
109.72   23
109.74   21
109.76   32
109.78   21
109.8    32
109.82   21
109.84   42
109.86   19
109.88   28
109.9    28
109.92   28
109.94   29
109.96   27
109.98   22
110.0    29
110.02   27
110.04   40
110.06   28
110.08   28
110.1    32
110.12   25
110.14   29
110.16   28
110.18   26
110.2    42
110.22   28
110.24   31
110.26   36
110.28   21
110.3    27
110.32   29
110.34   25
110.36   27
110.38   23
110.4    29
110.42   30
110.44   25
110.46   23
110.48   35
110.5    24
110.52   26
110.54   31
110.56   20
110.58   31
110.6    35
110.62   26
110.64   15
110.66   34
110.68   20
110.7    33
110.72   33
110.74   34
110.76   32
110.78   26
110.8    32
110.82   40
110.84   31
110.86   30
110.88   25
110.9    30
110.92   31
110.94   26
110.96   24
110.98   33
111.0    35
111.02   22
111.04   30
111.06   34
111.08   30
111.1    29
111.12   37
111.14   28
111.16   38
111.18   26
111.2    25
111.22   36
111.24   25
111.26   31
111.28   32
111.3    30
111.32   16
111.34   25
111.36   25
111.38   19
111.4    30
111.42   37
111.44   23
111.46   30
111.48   24
111.5    25
111.52   28
111.54   33
111.56   27
111.58   27
111.6    25
111.62   30
111.64   29
111.66   32
111.68   29
111.7    28
111.72   41
111.74   27
111.76   34
111.78   29
111.8    27
111.82   22
111.84   32
111.86   31
111.88   28
111.9    23
111.92   37
111.94   16
111.96   28
111.98   29
112.0    38
112.02   20
112.04   25
112.06   32
112.08   27
112.1    33
112.12   24
112.14   30
112.16   40
112.18   37
112.2    26
112.22   22
112.24   33
112.26   35
112.28   26
112.3    34
112.32   28
112.34   30
112.36   27
112.38   35
112.4    24
112.42   29
112.44   29
112.46   31
112.48   29
112.5    40
112.52   26
112.54   29
112.56   26
112.58   24
112.6    27
112.62   30
112.64   25
112.66   23
112.68   20
112.7    38
112.72   24
112.74   24
112.76   22
112.78   28
112.8    33
112.82   26
112.84   20
112.86   16
112.88   27
112.9    26
112.92   27
112.94   22
112.96   34
112.98   29
113.0    21
113.02   37
113.04   37
113.06   33
113.08   30
113.1    36
113.12   28
113.14   21
113.16   23
113.18   30
113.2    22
113.22   40
113.24   25
113.26   31
113.28   27
113.3    31
113.32   29
113.34   22
113.36   28
113.38   33
113.4    41
113.42   31
113.44   38
113.46   50
113.48   31
113.5    35
113.52   20
113.54   43
113.56   33
113.58   33
113.6    40
113.62   37
113.64   35
113.66   37
113.68   29
113.7    32
113.72   43
113.74   32
113.76   45
113.78   44
113.8    40
113.82   46
113.84   39
113.86   51
113.88   45
113.9    44
113.92   40
113.94   54
113.96   43
113.98   50
114.0    50
114.02   48
114.04   66
114.06   40
114.08   54
114.1    49
114.12   61
114.14   48
114.16   47
114.18   58
114.2    64
114.22   65
114.24   62
114.26   55
114.28   68
114.3    70
114.32   68
114.34   76
114.36   79
114.38   93
114.4    122
114.42   126
114.44   120
114.46   150
114.48   164
114.5    201
114.52   215
114.54   264
114.56   386
114.58   479
114.6    616
114.62   710
114.64   817
114.66   954
114.68   1063
114.7    1132
114.72   1079
114.74   1070
114.76   958
114.78   781
114.8    682
114.82   609
114.84   569
114.86   427
114.88   421
114.9    358
114.92   320
114.94   273
114.96   290
114.98   272
115.0    272
115.02   290
115.04   302
115.06   362
115.08   431
115.1    464
115.12   469
115.14   515
115.16   500
115.18   442
115.2    431
115.22   396
115.24   401
115.26   307
115.28   274
115.3    199
115.32   172
115.34   167
115.36   149
115.38   129
115.4    124
115.42   74
115.44   97
115.46   89
115.48   68
115.5    68
115.52   53
115.54   47
115.56   57
115.58   55
115.6    48
115.62   54
115.64   48
115.66   44
115.68   47
115.7    45
115.72   38
115.74   31
115.76   33
115.78   39
115.8    32
115.82   35
115.84   34
115.86   41
115.88   38
115.9    41
115.92   35
115.94   38
115.96   36
115.98   35
116.0    38
116.02   30
116.04   29
116.06   37
116.08   33
116.1    40
116.12   36
116.14   24
116.16   26
116.18   42
116.2    32
116.22   30
116.24   22
116.26   36
116.28   25
116.3    45
116.32   22
116.34   35
116.36   32
116.38   30
116.4    28
116.42   23
116.44   39
116.46   29
116.48   29
116.5    26
116.52   34
116.54   22
116.56   34
116.58   27
116.6    28
116.62   29
116.64   31
116.66   30
116.68   29
116.7    27
116.72   27
116.74   27
116.76   25
116.78   22
116.8    37
116.82   32
116.84   28
116.86   26
116.88   24
116.9    28
116.92   28
116.94   30
116.96   22
116.98   28
117.0    30
117.02   33
117.04   24
117.06   30
117.08   26
117.1    25
117.12   31
117.14   15
117.16   23
117.18   23
117.2    31
117.22   24
117.24   30
117.26   28
117.28   25
117.3    34
117.32   28
117.34   23
117.36   21
117.38   30
117.4    29
117.42   26
117.44   19
117.46   15
117.48   33
117.5    26
117.52   23
117.54   18
117.56   34
117.58   24
117.6    23
117.62   31
117.64   26
117.66   28
117.68   28
117.7    31
117.72   30
117.74   30
117.76   24
117.78   28
117.8    23
117.82   26
117.84   34
117.86   30
117.88   31
117.9    38
117.92   18
117.94   26
117.96   24
117.98   21
118.0    30
118.02   24
118.04   28
118.06   19
118.08   19
118.1    20
118.12   27
118.14   23
118.16   37
118.18   21
118.2    19
118.22   33
118.24   31
118.26   22
118.28   29
118.3    33
118.32   40
118.34   22
118.36   22
118.38   24
118.4    28
118.42   29
118.44   34
118.46   28
118.48   24
118.5    26
118.52   36
118.54   29
118.56   20
118.58   31
118.6    33
118.62   23
118.64   20
118.66   29
118.68   26
118.7    27
118.72   31
118.74   14
118.76   24
118.78   31
118.8    35
118.82   32
118.84   32
118.86   30
118.88   32
118.9    34
118.92   36
118.94   24
118.96   23
118.98   22
119.0    25
119.02   18
119.04   24
119.06   21
119.08   18
119.1    33
119.12   25
119.14   33
119.16   27
119.18   29
119.2    27
119.22   27
119.24   23
119.26   21
119.28   31
119.3    33
119.32   25
119.34   24
119.36   12
119.38   26
119.4    30
119.42   29
119.44   37
119.46   37
119.48   26
119.5    36
119.52   24
119.54   35
119.56   30
119.58   26
119.6    26
119.62   22
119.64   25
119.66   31
119.68   19
119.7    30
119.72   30
119.74   33
119.76   25
119.78   32
119.8    13
119.82   30
119.84   23
119.86   21
119.88   22
119.9    20
119.92   28
119.94   23
119.96   18
119.98   27
120.0    25
120.02   29
120.04   32
120.06   26
120.08   23
120.1    21
120.12   20
120.14   36
120.16   29
120.18   33
120.2    27
120.22   27
120.24   19
120.26   32
120.28   28
120.3    32
120.32   25
120.34   22
120.36   22
120.38   21
120.4    21
120.42   34
120.44   18
120.46   22
120.48   23
120.5    25
120.52   20
120.54   21
120.56   19
120.58   25
120.6    29
120.62   34
120.64   27
120.66   17
120.68   24
120.7    25
120.72   30
120.74   23
120.76   21
120.78   25
120.8    19
120.82   18
120.84   27
120.86   32
120.88   34
120.9    31
120.92   25
120.94   24
120.96   31
120.98   31
121.0    19
121.02   33
121.04   23
121.06   24
121.08   32
121.1    24
121.12   24
121.14   22
121.16   32
121.18   22
121.2    29
121.22   22
121.24   27
121.26   25
121.28   20
121.3    30
121.32   22
121.34   25
121.36   30
121.38   31
121.4    34
121.42   30
121.44   29
121.46   38
121.48   29
121.5    28
121.52   31
121.54   39
121.56   49
121.58   47
121.6    52
121.62   40
121.64   44
121.66   41
121.68   30
121.7    41
121.72   34
121.74   33
121.76   28
121.78   34
121.8    40
121.82   23
121.84   20
121.86   30
121.88   37
121.9    30
121.92   38
121.94   27
121.96   31
121.98   35
122.0    41
122.02   28
122.04   39
122.06   32
122.08   39
122.1    31
122.12   40
122.14   26
122.16   41
122.18   37
122.2    33
122.22   34
122.24   26
122.26   39
122.28   22
122.3    29
122.32   24
122.34   30
122.36   29
122.38   35
122.4    26
122.42   22
122.44   29
122.46   24
122.48   20
122.5    18
122.52   35
122.54   25
122.56   29
122.58   29
122.6    24
122.62   21
122.64   22
122.66   27
122.68   27
122.7    46
122.72   40
122.74   23
122.76   33
122.78   30
122.8    28
122.82   28
122.84   25
122.86   24
122.88   22
122.9    26
122.92   25
122.94   28
122.96   31
122.98   26
123.0    31
123.02   32
123.04   27
123.06   28
123.08   25
123.1    26
123.12   28
123.14   29
123.16   25
123.18   24
123.2    23
123.22   29
123.24   23
123.26   22
123.28   27
123.3    20
123.32   27
123.34   28
123.36   23
123.38   29
123.4    32
123.42   33
123.44   42
123.46   26
123.48   29
123.5    41
123.52   18
123.54   24
123.56   24
123.58   29
123.6    23
123.62   29
123.64   35
123.66   27
123.68   30
123.7    37
123.72   30
123.74   36
123.76   26
123.78   27
123.8    28
123.82   27
123.84   40
123.86   35
123.88   40
123.9    26
123.92   35
123.94   31
123.96   44
123.98   28
124.0    44
124.02   33
124.04   24
124.06   36
124.08   30
124.1    34
124.12   40
124.14   30
124.16   35
124.18   29
124.2    43
124.22   44
124.24   28
124.26   27
124.28   31
124.3    40
124.32   38
124.34   35
124.36   20
124.38   27
124.4    29
124.42   24
124.44   29
124.46   38
124.48   23
124.5    28
124.52   27
124.54   32
124.56   35
124.58   40
124.6    34
124.62   32
124.64   37
124.66   35
124.68   28
124.7    28
124.72   27
124.74   24
124.76   26
124.78   42
124.8    29
124.82   27
124.84   35
124.86   27
124.88   13
124.9    28
124.92   30
124.94   28
124.96   34
124.98   33
125.0    32
125.02   34
125.04   36
125.06   37
125.08   21
125.1    24
125.12   26
125.14   27
125.16   33
125.18   27
125.2    38
125.22   35
125.24   35
125.26   26
125.28   26
125.3    22
125.32   27
125.34   28
125.36   25
125.38   28
125.4    23
125.42   30
125.44   40
125.46   29
125.48   24
125.5    30
125.52   39
125.54   29
125.56   26
125.58   41
125.6    36
125.62   34
125.64   18
125.66   34
125.68   27
125.7    31
125.72   33
125.74   21
125.76   21
125.78   30
125.8    33
125.82   34
125.84   30
125.86   28
125.88   26
125.9    23
125.92   25
125.94   23
125.96   32
125.98   32
126.0    35
126.02   31
126.04   21
126.06   37
126.08   28
126.1    26
126.12   26
126.14   31
126.16   34
126.18   27
126.2    30
126.22   29
126.24   32
126.26   36
126.28   28
126.3    24
126.32   28
126.34   34
126.36   30
126.38   32
126.4    21
126.42   30
126.44   26
126.46   18
126.48   28
126.5    27
126.52   34
126.54   39
126.56   34
126.58   25
126.6    45
126.62   28
126.64   27
126.66   31
126.68   32
126.7    35
126.72   26
126.74   29
126.76   44
126.78   39
126.8    31
126.82   25
126.84   20
126.86   42
126.88   27
126.9    31
126.92   23
126.94   25
126.96   27
126.98   24
127.0    20
127.02   32
127.04   33
127.06   25
127.08   25
127.1    25
127.12   26
127.14   31
127.16   21
127.18   18
127.2    26
127.22   19
127.24   21
127.26   30
127.28   29
127.3    33
127.32   30
127.34   23
127.36   36
127.38   25
127.4    23
127.42   24
127.44   26
127.46   27
127.48   26
127.5    28
127.52   28
127.54   40
127.56   25
127.58   35
127.6    30
127.62   26
127.64   42
127.66   40
127.68   24
127.7    25
127.72   34
127.74   32
127.76   27
127.78   28
127.8    30
127.82   17
127.84   27
127.86   27
127.88   20
127.9    22
127.92   26
127.94   22
127.96   29
127.98   37
128.0    29
128.02   30
128.04   32
128.06   25
128.08   20
128.1    23
128.12   38
128.14   28
128.16   26
128.18   27
128.2    28
128.22   32
128.24   23
128.26   31
128.28   22
128.3    33
128.32   26
128.34   22
128.36   29
128.38   19
128.4    29
128.42   26
128.44   30
128.46   33
128.48   32
128.5    30
128.52   28
128.54   22
128.56   27
128.58   26
128.6    21
128.62   27
128.64   19
128.66   22
128.68   26
128.7    28
128.72   22
128.74   30
128.76   28
128.78   23
128.8    21
128.82   27
128.84   19
128.86   28
128.88   30
128.9    20
128.92   30
128.94   27
128.96   25
128.98   26
129.0    26
129.02   17
129.04   36
129.06   16
129.08   38
129.1    35
129.12   39
129.14   25
129.16   30
129.18   32
129.2    28
129.22   24
129.24   26
129.26   33
129.28   33
129.3    24
129.32   35
129.34   29
129.36   31
129.38   30
129.4    28
129.42   30
129.44   29
129.46   25
129.48   11
129.5    24
129.52   27
129.54   22
129.56   27
129.58   22
129.6    25
129.62   28
129.64   26
129.66   25
129.68   33
129.7    25
129.72   26
129.74   31
129.76   35
129.78   30
129.8    21
129.82   31
129.84   29
129.86   24
129.88   31
129.9    29
129.92   33
129.94   25
129.96   21
129.98   19
130.0    24
130.02   28
130.04   27
130.06   25
130.08   34
130.1    31
130.12   29
130.14   28
130.16   38
130.18   29
130.2    34
130.22   17
130.24   27
130.26   30
130.28   18
130.3    28
130.32   30
130.34   25
130.36   41
130.38   29
130.4    25
130.42   24
130.44   29
130.46   23
130.48   25
130.5    31
130.52   32
130.54   30
130.56   26
130.58   31
130.6    35
130.62   30
130.64   23
130.66   29
130.68   32
130.7    29
130.72   35
130.74   30
130.76   30
130.78   30
130.8    25
130.82   31
130.84   40
130.86   39
130.88   34
130.9    33
130.92   18
130.94   35
130.96   30
130.98   34
131.0    35
131.02   47
131.04   33
131.06   37
131.08   25
131.1    25
131.12   31
131.14   30
131.16   32
131.18   31
131.2    32
131.22   35
131.24   20
131.26   27
131.28   27
131.3    33
131.32   37
131.34   36
131.36   35
131.38   30
131.4    36
131.42   28
131.44   24
131.46   30
131.48   38
131.5    29
131.52   26
131.54   34
131.56   34
131.58   39
131.6    37
131.62   25
131.64   34
131.66   41
131.68   32
131.7    28
131.72   30
131.74   28
131.76   35
131.78   24
131.8    29
131.82   28
131.84   31
131.86   27
131.88   33
131.9    35
131.92   32
131.94   33
131.96   34
131.98   25
132.0    29
132.02   30
132.04   31
132.06   38
132.08   32
132.1    38
132.12   22
132.14   25
132.16   22
132.18   33
132.2    20
132.22   20
132.24   31
132.26   29
132.28   24
132.3    25
132.32   31
132.34   32
132.36   25
132.38   22
132.4    28
132.42   27
132.44   35
132.46   42
132.48   26
132.5    32
132.52   40
132.54   28
132.56   25
132.58   29
132.6    27
132.62   27
132.64   31
132.66   37
132.68   32
132.7    28
132.72   26
132.74   27
132.76   28
132.78   25
132.8    21
132.82   35
132.84   32
132.86   33
132.88   25
132.9    25
132.92   24
132.94   30
132.96   34
132.98   30
133.0    25
133.02   24
133.04   33
133.06   34
133.08   23
133.1    20
133.12   28
133.14   35
133.16   35
133.18   38
133.2    26
133.22   33
133.24   25
133.26   25
133.28   26
133.3    25
133.32   36
133.34   28
133.36   46
133.38   23
133.4    31
133.42   40
133.44   51
133.46   25
133.48   33
133.5    40
133.52   31
133.54   23
133.56   24
133.58   33
133.6    23
133.62   26
133.64   30
133.66   31
133.68   34
133.7    30
133.72   25
133.74   32
133.76   30
133.78   31
133.8    33
133.82   33
133.84   27
133.86   35
133.88   31
133.9    36
133.92   42
133.94   28
133.96   38
133.98   44
134.0    42
134.02   39
134.04   45
134.06   35
134.08   40
134.1    41
134.12   45
134.14   41
134.16   39
134.18   44
134.2    57
134.22   52
134.24   66
134.26   61
134.28   68
134.3    80
134.32   98
134.34   85
134.36   101
134.38   118
134.4    147
134.42   165
134.44   163
134.46   184
134.48   201
134.5    247
134.52   250
134.54   283
134.56   293
134.58   249
134.6    278
134.62   237
134.64   216
134.66   208
134.68   207
134.7    187
134.72   167
134.74   153
134.76   152
134.78   132
134.8    152
134.82   133
134.84   126
134.86   115
134.88   87
134.9    114
134.92   101
134.94   68
134.96   83
134.98   80
135.0    85
135.02   79
135.04   97
135.06   84
135.08   92
135.1    104
135.12   98
135.14   122
135.16   120
135.18   143
135.2    148
135.22   142
135.24   141
135.26   121
135.28   128
135.3    145
135.32   111
135.34   126
135.36   92
135.38   105
135.4    91
135.42   95
135.44   95
135.46   86
135.48   60
135.5    82
135.52   84
135.54   65
135.56   62
135.58   55
135.6    56
135.62   55
135.64   56
135.66   48
135.68   36
135.7    41
135.72   35
135.74   37
135.76   48
135.78   36
135.8    34
135.82   34
135.84   41
135.86   44
135.88   29
135.9    40
135.92   40
135.94   35
135.96   28
135.98   37
136.0    32
136.02   46
136.04   29
136.06   29
136.08   45
136.1    32
136.12   34
136.14   30
136.16   39
136.18   28
136.2    38
136.22   28
136.24   33
136.26   30
136.28   29
136.3    29
136.32   25
136.34   38
136.36   31
136.38   30
136.4    32
136.42   32
136.44   19
136.46   31
136.48   17
136.5    26
136.52   27
136.54   38
136.56   27
136.58   28
136.6    25
136.62   35
136.64   34
136.66   37
136.68   38
136.7    24
136.72   35
136.74   34
136.76   34
136.78   43
136.8    28
136.82   41
136.84   29
136.86   46
136.88   25
136.9    26
136.92   28
136.94   31
136.96   35
136.98   41
137.0    35
137.02   25
137.04   35
137.06   37
137.08   32
137.1    34
137.12   32
137.14   27
137.16   26
137.18   30
137.2    34
137.22   36
137.24   37
137.26   29
137.28   43
137.3    20
137.32   29
137.34   28
137.36   30
137.38   29
137.4    31
137.42   34
137.44   30
137.46   26
137.48   30
137.5    26
137.52   34
137.54   21
137.56   26
137.58   29
137.6    23
137.62   30
137.64   32
137.66   38
137.68   43
137.7    27
137.72   36
137.74   20
137.76   27
137.78   25
137.8    32
137.82   37
137.84   37
137.86   34
137.88   38
137.9    28
137.92   30
137.94   30
137.96   24
137.98   31
138.0    30
138.02   28
138.04   32
138.06   28
138.08   29
138.1    22
138.12   24
138.14   31
138.16   37
138.18   23
138.2    30
138.22   22
138.24   29
138.26   29
138.28   29
138.3    34
138.32   41
138.34   29
138.36   32
138.38   23
138.4    24
138.42   25
138.44   25
138.46   44
138.48   35
138.5    26
138.52   33
138.54   28
138.56   25
138.58   27
138.6    31
138.62   28
138.64   23
138.66   23
138.68   32
138.7    38
138.72   28
138.74   25
138.76   24
138.78   28
138.8    36
138.82   29
138.84   43
138.86   26
138.88   43
138.9    27
138.92   40
138.94   26
138.96   27
138.98   39
139.0    34
139.02   20
139.04   32
139.06   29
139.08   22
139.1    27
139.12   16
139.14   38
139.16   27
139.18   35
139.2    25
139.22   26
139.24   23
139.26   32
139.28   33
139.3    26
139.32   33
139.34   37
139.36   27
139.38   24
139.4    30
139.42   37
139.44   30
139.46   23
139.48   29
139.5    34
139.52   32
139.54   23
139.56   31
139.58   33
139.6    24
139.62   26
139.64   29
139.66   26
139.68   25
139.7    35
139.72   28
139.74   24
139.76   20
139.78   31
139.8    33
139.82   35
139.84   22
139.86   21
139.88   26
139.9    28
139.92   26
139.94   34
139.96   36
139.98   32
140.0    28
