20.0     57
20.02    50
20.04    57
20.06    62
20.08    73
20.1     53
20.12    51
20.14    62
20.16    54
20.18    58
20.2     50
20.22    61
20.24    71
20.26    59
20.28    60
20.3     67
20.32    51
20.34    68
20.36    65
20.38    64
20.4     64
20.42    47
20.44    62
20.46    57
20.48    54
20.5     44
20.52    63
20.54    59
20.56    54
20.58    48
20.6     68
20.62    71
20.64    69
20.66    62
20.68    71
20.7     62
20.72    54
20.74    63
20.76    60
20.78    61
20.8     69
20.82    59
20.84    61
20.86    55
20.88    54
20.9     40
20.92    55
20.94    64
20.96    52
20.98    65
21.0     54
21.02    52
21.04    67
21.06    62
21.08    68
21.1     59
21.12    52
21.14    53
21.16    55
21.18    64
21.2     69
21.22    68
21.24    78
21.26    47
21.28    60
21.3     52
21.32    60
21.34    60
21.36    56
21.38    64
21.4     69
21.42    64
21.44    59
21.46    50
21.48    66
21.5     48
21.52    59
21.54    61
21.56    71
21.58    55
21.6     57
21.62    68
21.64    50
21.66    53
21.68    43
21.7     48
21.72    59
21.74    62
21.76    61
21.78    65
21.8     57
21.82    62
21.84    55
21.86    51
21.88    46
21.9     56
21.92    61
21.94    54
21.96    55
21.98    58
22.0     63
22.02    56
22.04    49
22.06    48
22.08    59
22.1     71
22.12    56
22.14    71
22.16    61
22.18    56
22.2     66
22.22    56
22.24    59
22.26    60
22.28    47
22.3     54
22.32    54
22.34    50
22.36    49
22.38    49
22.4     52
22.42    53
22.44    52
22.46    43
22.48    53
22.5     50
22.52    45
22.54    38
22.56    63
22.58    55
22.6     60
22.62    48
22.64    61
22.66    53
22.68    38
22.7     54
22.72    50
22.74    54
22.76    50
22.78    50
22.8     56
22.82    47
22.84    44
22.86    55
22.88    42
22.9     55
22.92    60
22.94    41
22.96    53
22.98    51
23.0     49
23.02    52
23.04    62
23.06    47
23.08    65
23.1     60
23.12    45
23.14    46
23.16    39
23.18    55
23.2     55
23.22    47
23.24    51
23.26    53
23.28    46
23.3     49
23.32    54
23.34    45
23.36    46
23.38    45
23.4     43
23.42    45
23.44    57
23.46    44
23.48    43
23.5     42
23.52    50
23.54    41
23.56    47
23.58    40
23.6     44
23.62    53
23.64    44
23.66    47
23.68    52
23.7     45
23.72    35
23.74    38
23.76    40
23.78    44
23.8     53
23.82    54
23.84    37
23.86    53
23.88    49
23.9     54
23.92    67
23.94    54
23.96    39
23.98    47
24.0     48
24.02    43
24.04    53
24.06    53
24.08    49
24.1     48
24.12    45
24.14    55
24.16    47
24.18    41
24.2     44
24.22    31
24.24    51
24.26    56
24.28    50
24.3     51
24.32    44
24.34    61
24.36    53
24.38    45
24.4     38
24.42    42
24.44    60
24.46    36
24.48    49
24.5     55
24.52    50
24.54    55
24.56    64
24.58    38
24.6     46
24.62    54
24.64    58
24.66    43
24.68    47
24.7     48
24.72    38
24.74    44
24.76    40
24.78    43
24.8     55
24.82    46
24.84    50
24.86    44
24.88    43
24.9     49
24.92    40
24.94    33
24.96    45
24.98    50
25.0     45
25.02    39
25.04    51
25.06    54
25.08    29
25.1     37
25.12    46
25.14    46
25.16    35
25.18    48
25.2     47
25.22    37
25.24    53
25.26    43
25.28    43
25.3     44
25.32    37
25.34    44
25.36    37
25.38    38
25.4     55
25.42    47
25.44    50
25.46    50
25.48    59
25.5     54
25.52    48
25.54    40
25.56    52
25.58    50
25.6     49
25.62    39
25.64    38
25.66    46
25.68    47
25.7     50
25.72    43
25.74    40
25.76    45
25.78    49
25.8     56
25.82    50
25.84    46
25.86    42
25.88    46
25.9     49
25.92    39
25.94    46
25.96    40
25.98    45
26.0     45
26.02    39
26.04    52
26.06    49
26.08    45
26.1     44
26.12    43
26.14    41
26.16    57
26.18    57
26.2     51
26.22    53
26.24    52
26.26    51
26.28    47
26.3     43
26.32    52
26.34    56
26.36    43
26.38    68
26.4     43
26.42    60
26.44    86
26.46    95
26.48    146
26.5     177
26.52    215
26.54    303
26.56    403
26.58    423
26.6     404
26.62    341
26.64    254
26.66    213
26.68    147
26.7     123
26.72    82
26.74    69
26.76    50
26.78    43
26.8     51
26.82    47
26.84    46
26.86    36
26.88    51
26.9     41
26.92    39
26.94    42
26.96    47
26.98    29
27.0     53
27.02    39
27.04    53
27.06    45
27.08    41
27.1     32
27.12    49
27.14    42
27.16    36
27.18    30
27.2     39
27.22    48
27.24    48
27.26    28
27.28    40
27.3     51
27.32    26
27.34    41
27.36    43
27.38    37
27.4     44
27.42    33
27.44    46
27.46    32
27.48    46
27.5     42
27.52    35
27.54    46
27.56    47
27.58    42
27.6     50
27.62    52
27.64    37
27.66    34
27.68    30
27.7     48
27.72    40
27.74    39
27.76    32
27.78    36
27.8     31
27.82    34
27.84    44
27.86    39
27.88    33
27.9     40
27.92    41
27.94    47
27.96    34
27.98    35
28.0     37
28.02    31
28.04    32
28.06    42
28.08    47
28.1     35
28.12    39
28.14    40
28.16    41
28.18    42
28.2     41
28.22    39
28.24    38
28.26    25
28.28    32
28.3     43
28.32    37
28.34    48
28.36    43
28.38    42
28.4     32
28.42    43
28.44    28
28.46    36
28.48    43
28.5     29
28.52    44
28.54    40
28.56    44
28.58    45
28.6     33
28.62    43
28.64    41
28.66    35
28.68    30
28.7     34
28.72    43
28.74    35
28.76    39
28.78    40
28.8     41
28.82    32
28.84    42
28.86    41
28.88    35
28.9     44
28.92    35
28.94    54
28.96    36
28.98    45
29.0     29
29.02    37
29.04    44
29.06    32
29.08    31
29.1     34
29.12    31
29.14    44
29.16    30
29.18    29
29.2     33
29.22    42
29.24    36
29.26    29
29.28    34
29.3     41
29.32    47
29.34    39
29.36    33
29.38    42
29.4     35
29.42    42
29.44    33
29.46    37
29.48    37
29.5     40
29.52    28
29.54    33
29.56    41
29.58    44
29.6     37
29.62    33
29.64    46
29.66    31
29.68    39
29.7     28
29.72    39
29.74    33
29.76    31
29.78    37
29.8     31
29.82    37
29.84    35
29.86    31
29.88    36
29.9     32
29.92    46
29.94    22
29.96    38
29.98    35
30.0     26
30.02    42
30.04    43
30.06    32
30.08    25
30.1     33
30.12    42
30.14    51
30.16    31
30.18    34
30.2     40
30.22    32
30.24    37
30.26    36
30.28    38
30.3     34
30.32    34
30.34    39
30.36    42
30.38    40
30.4     38
30.42    46
30.44    35
30.46    41
30.48    40
30.5     48
30.52    34
30.54    41
30.56    37
30.58    40
30.6     47
30.62    50
30.64    54
30.66    51
30.68    61
30.7     81
30.72    91
30.74    113
30.76    155
30.78    196
30.8     205
30.82    226
30.84    200
30.86    187
30.88    157
30.9     121
30.92    112
30.94    67
30.96    51
30.98    45
31.0     49
31.02    28
31.04    32
31.06    43
31.08    37
31.1     46
31.12    34
31.14    36
31.16    33
31.18    24
31.2     39
31.22    31
31.24    42
31.26    43
31.28    38
31.3     38
31.32    41
31.34    34
31.36    44
31.38    38
31.4     36
31.42    50
31.44    52
31.46    54
31.48    50
31.5     47
31.52    44
31.54    57
31.56    58
31.58    44
31.6     47
31.62    47
31.64    42
31.66    44
31.68    27
31.7     49
31.72    35
31.74    35
31.76    32
31.78    34
31.8     21
31.82    44
31.84    23
31.86    32
31.88    38
31.9     32
31.92    37
31.94    39
31.96    42
31.98    30
32.0     31
32.02    34
32.04    35
32.06    35
32.08    34
32.1     29
32.12    35
32.14    26
32.16    26
32.18    36
32.2     31
32.22    37
32.24    44
32.26    38
32.28    30
32.3     40
32.32    24
32.34    23
32.36    32
32.38    41
32.4     34
32.42    36
32.44    30
32.46    33
32.48    34
32.5     28
32.52    34
32.54    31
32.56    42
32.58    37
32.6     26
32.62    35
32.64    32
32.66    33
32.68    39
32.7     28
32.72    31
32.74    43
32.76    34
32.78    39
32.8     35
32.82    31
32.84    42
32.86    30
32.88    39
32.9     33
32.92    36
32.94    37
32.96    27
32.98    34
33.0     26
33.02    39
33.04    35
33.06    45
33.08    39
33.1     37
33.12    27
33.14    36
33.16    38
33.18    29
33.2     23
33.22    30
33.24    35
33.26    34
33.28    38
33.3     36
33.32    36
33.34    37
33.36    33
33.38    32
33.4     39
33.42    36
33.44    30
33.46    30
33.48    32
33.5     33
33.52    31
33.54    30
33.56    38
33.58    37
33.6     31
33.62    28
33.64    34
33.66    25
33.68    24
33.7     39
33.72    27
33.74    30
33.76    35
33.78    30
33.8     25
33.82    28
33.84    27
33.86    46
33.88    25
33.9     26
33.92    36
33.94    45
33.96    29
33.98    33
34.0     32
34.02    28
34.04    30
34.06    36
34.08    44
34.1     25
34.12    42
34.14    31
34.16    40
34.18    39
34.2     27
34.22    37
34.24    33
34.26    38
34.28    52
34.3     45
34.32    39
34.34    49
34.36    36
34.38    53
34.4     39
34.42    44
34.44    38
34.46    55
34.48    59
34.5     51
34.52    65
34.54    48
34.56    41
34.58    36
34.6     48
34.62    49
34.64    38
34.66    47
34.68    37
34.7     35
34.72    36
34.74    27
34.76    32
34.78    32
34.8     29
34.82    18
34.84    38
34.86    21
34.88    40
34.9     26
34.92    34
34.94    53
34.96    33
34.98    31
35.0     39
35.02    30
35.04    34
35.06    46
35.08    30
35.1     38
35.12    32
35.14    30
35.16    37
35.18    29
35.2     41
35.22    26
35.24    32
35.26    29
35.28    43
35.3     34
35.32    29
35.34    23
35.36    34
35.38    38
35.4     39
35.42    30
35.44    27
35.46    36
35.48    41
35.5     42
35.52    31
35.54    25
35.56    29
35.58    31
35.6     44
35.62    42
35.64    35
35.66    35
35.68    28
35.7     29
35.72    37
35.74    31
35.76    26
35.78    39
35.8     30
35.82    23
35.84    42
35.86    27
35.88    25
35.9     35
35.92    33
35.94    39
35.96    31
35.98    37
36.0     34
36.02    28
36.04    32
36.06    32
36.08    36
36.1     34
36.12    31
36.14    26
36.16    36
36.18    39
36.2     24
36.22    35
36.24    25
36.26    21
36.28    35
36.3     32
36.32    16
36.34    28
36.36    33
36.38    30
36.4     31
36.42    34
36.44    38
36.46    40
36.48    23
36.5     29
36.52    21
36.54    27
36.56    44
36.58    23
36.6     30
36.62    22
36.64    26
36.66    34
36.68    41
36.7     35
36.72    28
36.74    24
36.76    36
36.78    33
36.8     23
36.82    31
36.84    27
36.86    28
36.88    24
36.9     26
36.92    27
36.94    25
36.96    35
36.98    33
37.0     36
37.02    33
37.04    28
37.06    38
37.08    32
37.1     36
37.12    21
37.14    31
37.16    33
37.18    20
37.2     30
37.22    35
37.24    37
37.26    27
37.28    36
37.3     24
37.32    40
37.34    33
37.36    25
37.38    28
37.4     22
37.42    27
37.44    29
37.46    24
37.48    28
37.5     35
37.52    25
37.54    37
37.56    41
37.58    28
37.6     33
37.62    33
37.64    31
37.66    31
37.68    36
37.7     36
37.72    44
37.74    28
37.76    31
37.78    33
37.8     35
37.82    44
37.84    37
37.86    41
37.88    25
37.9     34
37.92    34
37.94    24
37.96    28
37.98    34
38.0     27
38.02    30
38.04    34
38.06    26
38.08    28
38.1     28
38.12    33
38.14    36
38.16    19
38.18    19
38.2     29
38.22    36
38.24    42
38.26    38
38.28    30
38.3     25
38.32    29
38.34    44
38.36    35
38.38    23
38.4     22
38.42    32
38.44    25
38.46    33
38.48    32
38.5     44
38.52    40
38.54    41
38.56    34
38.58    28
38.6     38
38.62    28
38.64    45
38.66    36
38.68    38
38.7     44
38.72    39
38.74    47
38.76    50
38.78    46
38.8     89
38.82    68
38.84    79
38.86    81
38.88    67
38.9     79
38.92    68
38.94    73
38.96    80
38.98    62
39.0     64
39.02    52
39.04    62
39.06    38
39.08    46
39.1     45
39.12    42
39.14    37
39.16    38
39.18    46
39.2     40
39.22    37
39.24    28
39.26    27
39.28    29
39.3     30
39.32    25
39.34    21
39.36    18
39.38    33
39.4     25
39.42    29
39.44    30
39.46    36
39.48    36
39.5     34
39.52    37
39.54    25
39.56    27
39.58    29
39.6     36
39.62    30
39.64    27
39.66    34
39.68    30
39.7     31
39.72    24
39.74    24
39.76    35
39.78    30
39.8     36
39.82    35
39.84    27
39.86    36
39.88    18
39.9     25
39.92    28
39.94    16
39.96    33
39.98    30
40.0     19
40.02    34
40.04    36
40.06    23
40.08    33
40.1     31
40.12    38
40.14    37
40.16    26
40.18    27
40.2     31
40.22    25
40.24    29
40.26    38
40.28    26
40.3     27
40.32    30
40.34    25
40.36    30
40.38    29
40.4     27
40.42    25
40.44    24
40.46    19
40.48    36
40.5     25
40.52    29
40.54    41
40.56    27
40.58    39
40.6     29
40.62    46
40.64    33
40.66    22
40.68    31
40.7     21
40.72    17
40.74    34
40.76    28
40.78    39
40.8     34
40.82    33
40.84    23
40.86    30
40.88    35
40.9     45
40.92    37
40.94    32
40.96    36
40.98    28
41.0     53
41.02    31
41.04    35
41.06    46
41.08    44
41.1     42
41.12    54
41.14    65
41.16    50
41.18    59
41.2     63
41.22    70
41.24    75
41.26    79
41.28    75
41.3     77
41.32    101
41.34    114
41.36    88
41.38    111
41.4     98
41.42    79
41.44    108
41.46    96
41.48    95
41.5     80
41.52    78
41.54    60
41.56    53
41.58    57
41.6     53
41.62    48
41.64    42
41.66    55
41.68    35
41.7     38
41.72    42
41.74    37
41.76    34
41.78    39
41.8     38
41.82    33
41.84    30
41.86    26
41.88    28
41.9     26
41.92    30
41.94    31
41.96    26
41.98    24
42.0     23
42.02    23
42.04    19
42.06    26
42.08    28
42.1     25
42.12    25
42.14    33
42.16    46
42.18    39
42.2     35
42.22    33
42.24    18
42.26    30
42.28    18
42.3     28
42.32    32
42.34    25
42.36    38
42.38    29
42.4     30
42.42    26
42.44    22
42.46    30
42.48    28
42.5     33
42.52    25
42.54    30
42.56    26
42.58    28
42.6     21
42.62    31
42.64    36
42.66    30
42.68    24
42.7     30
42.72    32
42.74    34
42.76    31
42.78    30
42.8     23
42.82    42
42.84    34
42.86    33
42.88    33
42.9     28
42.92    26
42.94    35
42.96    33
42.98    32
43.0     34
43.02    39
43.04    39
43.06    44
43.08    33
43.1     32
43.12    42
43.14    33
43.16    34
43.18    40
43.2     49
43.22    46
43.24    46
43.26    51
43.28    41
43.3     46
43.32    47
43.34    65
43.36    39
43.38    49
43.4     45
43.42    36
43.44    46
43.46    51
43.48    52
43.5     40
43.52    48
43.54    60
43.56    50
43.58    50
43.6     69
43.62    62
43.64    53
43.66    71
43.68    66
43.7     89
43.72    106
43.74    94
43.76    99
43.78    110
43.8     121
43.82    108
43.84    136
43.86    166
43.88    155
43.9     188
43.92    232
43.94    251
43.96    263
43.98    286
44.0     323
44.02    459
44.04    718
44.06    996
44.08    1467
44.1     2279
44.12    3468
44.14    4814
44.16    5770
44.18    6062
44.2     5499
44.22    4470
44.24    3583
44.26    3192
44.28    3043
44.3     2870
44.32    2418
44.34    1723
44.36    1122
44.38    670
44.4     408
44.42    254
44.44    230
44.46    148
44.48    116
44.5     121
44.52    102
44.54    89
44.56    76
44.58    70
44.6     51
44.62    60
44.64    36
44.66    44
44.68    51
44.7     50
44.72    47
44.74    36
44.76    31
44.78    30
44.8     51
44.82    40
44.84    22
44.86    41
44.88    32
44.9     25
44.92    38
44.94    27
44.96    34
44.98    33
45.0     28
45.02    47
45.04    28
45.06    30
45.08    47
45.1     43
45.12    31
45.14    36
45.16    44
45.18    40
45.2     42
45.22    40
45.24    41
45.26    50
45.28    34
45.3     43
45.32    34
45.34    38
45.36    39
45.38    40
45.4     40
45.42    45
45.44    33
45.46    37
45.48    32
45.5     40
45.52    27
45.54    35
45.56    31
45.58    35
45.6     24
45.62    34
45.64    39
45.66    28
45.68    25
45.7     19
45.72    34
45.74    26
45.76    27
45.78    20
45.8     26
45.82    23
45.84    21
45.86    27
45.88    23
45.9     42
45.92    27
45.94    26
45.96    29
45.98    21
46.0     33
46.02    22
46.04    25
46.06    36
46.08    24
46.1     27
46.12    25
46.14    23
46.16    21
46.18    22
46.2     30
46.22    24
46.24    23
46.26    24
46.28    21
46.3     11
46.32    25
46.34    31
46.36    24
46.38    19
46.4     19
46.42    23
46.44    20
46.46    21
46.48    33
46.5     30
46.52    24
46.54    26
46.56    23
46.58    28
46.6     42
46.62    15
46.64    23
46.66    32
46.68    22
46.7     26
46.72    29
46.74    24
46.76    18
46.78    16
46.8     20
46.82    23
46.84    24
46.86    21
46.88    29
46.9     23
46.92    26
46.94    26
46.96    23
46.98    20
47.0     24
47.02    31
47.04    25
47.06    23
47.08    23
47.1     23
47.12    24
47.14    23
47.16    17
47.18    24
47.2     30
47.22    15
47.24    20
47.26    21
47.28    26
47.3     23
47.32    20
47.34    26
47.36    27
47.38    28
47.4     24
47.42    30
47.44    23
47.46    26
47.48    26
47.5     22
47.52    27
47.54    14
47.56    21
47.58    29
47.6     20
47.62    25
47.64    24
47.66    25
47.68    20
47.7     18
47.72    28
47.74    22
47.76    26
47.78    27
47.8     26
47.82    22
47.84    35
47.86    24
47.88    38
47.9     22
47.92    33
47.94    36
47.96    29
47.98    22
48.0     25
48.02    33
48.04    28
48.06    22
48.08    27
48.1     24
48.12    14
48.14    19
48.16    24
48.18    24
48.2     25
48.22    20
48.24    28
48.26    26
48.28    23
48.3     26
48.32    23
48.34    34
48.36    30
48.38    22
48.4     36
48.42    29
48.44    27
48.46    24
48.48    23
48.5     23
48.52    17
48.54    24
48.56    18
48.58    24
48.6     30
48.62    22
48.64    21
48.66    19
48.68    25
48.7     35
48.72    37
48.74    23
48.76    21
48.78    24
48.8     27
48.82    19
48.84    26
48.86    20
48.88    17
48.9     18
48.92    26
48.94    17
48.96    17
48.98    15
49.0     26
49.02    19
49.04    22
49.06    18
49.08    21
49.1     19
49.12    23
49.14    25
49.16    30
49.18    17
49.2     17
49.22    21
49.24    21
49.26    23
49.28    16
49.3     26
49.32    19
49.34    20
49.36    19
49.38    22
49.4     31
49.42    19
49.44    29
49.46    26
49.48    22
49.5     20
49.52    25
49.54    24
49.56    26
49.58    27
49.6     32
49.62    25
49.64    18
49.66    26
49.68    24
49.7     24
49.72    26
49.74    21
49.76    20
49.78    26
49.8     15
49.82    17
49.84    16
49.86    23
49.88    28
49.9     22
49.92    25
49.94    28
49.96    17
49.98    21
50.0     21
50.02    20
50.04    27
50.06    24
50.08    17
50.1     23
50.12    26
50.14    28
50.16    26
50.18    21
50.2     25
50.22    29
50.24    25
50.26    18
50.28    15
50.3     28
50.32    19
50.34    27
50.36    26
50.38    28
50.4     26
50.42    20
50.44    24
50.46    29
50.48    25
50.5     25
50.52    28
50.54    20
50.56    19
50.58    33
50.6     28
50.62    25
50.64    18
50.66    21
50.68    27
50.7     25
50.72    28
50.74    27
50.76    28
50.78    19
50.8     23
50.82    26
50.84    21
50.86    25
50.88    22
50.9     18
50.92    17
50.94    25
50.96    26
50.98    32
51.0     20
51.02    22
51.04    24
51.06    29
51.08    31
51.1     25
51.12    26
51.14    35
51.16    28
51.18    18
51.2     24
51.22    25
51.24    23
51.26    28
51.28    22
51.3     24
51.32    21
51.34    30
51.36    20
51.38    18
51.4     21
51.42    17
51.44    24
51.46    20
51.48    27
51.5     29
51.52    22
51.54    30
51.56    20
51.58    28
51.6     30
51.62    20
51.64    19
51.66    20
51.68    27
51.7     19
51.72    24
51.74    26
51.76    24
51.78    30
51.8     20
51.82    16
51.84    28
51.86    32
51.88    17
51.9     15
51.92    29
51.94    24
51.96    27
51.98    21
52.0     27
52.02    21
52.04    30
52.06    24
52.08    35
52.1     49
52.12    26
52.14    33
52.16    28
52.18    29
52.2     42
52.22    55
52.24    60
52.26    72
52.28    129
52.3     183
52.32    203
52.34    262
52.36    206
52.38    194
52.4     149
52.42    124
52.44    117
52.46    129
52.48    120
52.5     135
52.52    99
52.54    75
52.56    48
52.58    42
52.6     37
52.62    31
52.64    32
52.66    33
52.68    24
52.7     27
52.72    25
52.74    24
52.76    31
52.78    23
52.8     31
52.82    24
52.84    28
52.86    21
52.88    24
52.9     25
52.92    16
52.94    22
52.96    20
52.98    22
53.0     28
53.02    21
53.04    26
53.06    25
53.08    18
53.1     26
53.12    21
53.14    20
53.16    22
53.18    29
53.2     24
53.22    28
53.24    24
53.26    25
53.28    16
53.3     19
53.32    31
53.34    22
53.36    23
53.38    20
53.4     17
53.42    26
53.44    15
53.46    24
53.48    27
53.5     17
53.52    27
53.54    26
53.56    18
53.58    28
53.6     19
53.62    14
53.64    20
53.66    15
53.68    31
53.7     24
53.72    24
53.74    32
53.76    25
53.78    21
53.8     28
53.82    18
53.84    27
53.86    26
53.88    20
53.9     24
53.92    26
53.94    20
53.96    33
53.98    24
54.0     29
54.02    20
54.04    29
54.06    23
54.08    27
54.1     28
54.12    25
54.14    19
54.16    21
54.18    24
54.2     17
54.22    23
54.24    28
54.26    21
54.28    22
54.3     29
54.32    17
54.34    25
54.36    18
54.38    19
54.4     23
54.42    17
54.44    19
54.46    16
54.48    19
54.5     24
54.52    27
54.54    18
54.56    25
54.58    22
54.6     29
54.62    16
54.64    29
54.66    34
54.68    20
54.7     31
54.72    31
54.74    23
54.76    25
54.78    20
54.8     30
54.82    54
54.84    53
54.86    55
54.88    47
54.9     48
54.92    40
54.94    47
54.96    41
54.98    36
55.0     29
55.02    43
55.04    32
55.06    36
55.08    28
55.1     29
55.12    22
55.14    30
55.16    32
55.18    28
55.2     19
55.22    16
55.24    27
55.26    22
55.28    22
55.3     27
55.32    32
55.34    25
55.36    28
55.38    31
55.4     14
55.42    8
55.44    30
55.46    21
55.48    29
55.5     30
55.52    21
55.54    18
55.56    22
55.58    22
55.6     20
55.62    31
55.64    25
55.66    24
55.68    28
55.7     16
55.72    15
55.74    20
55.76    20
55.78    17
55.8     23
55.82    22
55.84    19
55.86    19
55.88    15
55.9     24
55.92    26
55.94    24
55.96    26
55.98    21
56.0     25
56.02    20
56.04    28
56.06    27
56.08    19
56.1     19
56.12    20
56.14    19
56.16    19
56.18    23
56.2     19
56.22    26
56.24    24
56.26    19
56.28    25
56.3     23
56.32    19
56.34    31
56.36    25
56.38    24
56.4     23
56.42    23
56.44    26
56.46    33
56.48    23
56.5     31
56.52    32
56.54    19
56.56    30
56.58    30
56.6     26
56.62    25
56.64    22
56.66    23
56.68    29
56.7     31
56.72    25
56.74    24
56.76    17
56.78    30
56.8     27
56.82    31
56.84    30
56.86    23
56.88    31
56.9     26
56.92    34
56.94    25
56.96    11
56.98    8
57.0     24
57.02    25
57.04    22
57.06    20
57.08    17
57.1     29
57.12    24
57.14    39
57.16    30
57.18    23
57.2     20
57.22    22
57.24    23
57.26    36
57.28    22
57.3     26
57.32    19
57.34    25
57.36    28
57.38    22
57.4     36
57.42    21
57.44    29
57.46    43
57.48    30
57.5     34
57.52    27
57.54    31
57.56    27
57.58    30
57.6     22
57.62    23
57.64    27
57.66    27
57.68    24
57.7     19
57.72    27
57.74    22
57.76    28
57.78    26
57.8     24
57.82    21
57.84    20
57.86    26
57.88    32
57.9     22
57.92    22
57.94    30
57.96    25
57.98    19
58.0     41
58.02    32
58.04    28
58.06    37
58.08    34
58.1     30
58.12    29
58.14    24
58.16    26
58.18    31
58.2     27
58.22    15
58.24    29
58.26    20
58.28    20
58.3     28
58.32    28
58.34    25
58.36    23
58.38    27
58.4     30
58.42    27
58.44    30
58.46    22
58.48    13
58.5     26
58.52    23
58.54    28
58.56    28
58.58    31
58.6     24
58.62    25
58.64    25
58.66    20
58.68    24
58.7     25
58.72    34
58.74    30
58.76    24
58.78    20
58.8     38
58.82    24
58.84    16
58.86    27
58.88    22
58.9     33
58.92    25
58.94    20
58.96    23
58.98    20
59.0     29
59.02    19
59.04    20
59.06    22
59.08    22
59.1     26
59.12    18
59.14    23
59.16    17
59.18    25
59.2     32
59.22    27
59.24    24
59.26    18
59.28    20
59.3     27
59.32    25
59.34    33
59.36    32
59.38    23
59.4     16
59.42    19
59.44    27
59.46    26
59.48    24
59.5     29
59.52    26
59.54    27
59.56    26
59.58    21
59.6     8
59.62    39
59.64    25
59.66    19
59.68    23
59.7     35
59.72    21
59.74    21
59.76    28
59.78    31
59.8     28
59.82    26
59.84    16
59.86    24
59.88    22
59.9     24
59.92    26
59.94    20
59.96    21
59.98    19
60.0     19
60.02    28
60.04    18
60.06    25
60.08    38
60.1     14
60.12    26
60.14    24
60.16    19
60.18    21
60.2     32
60.22    25
60.24    20
60.26    20
60.28    20
60.3     21
60.32    18
60.34    20
60.36    29
60.38    19
60.4     21
60.42    25
60.44    28
60.46    19
60.48    26
60.5     19
60.52    19
60.54    25
60.56    20
60.58    25
60.6     34
60.62    24
60.64    21
60.66    18
60.68    26
60.7     21
60.72    23
60.74    32
60.76    21
60.78    15
60.8     20
60.82    20
60.84    20
60.86    27
60.88    23
60.9     24
60.92    22
60.94    27
60.96    28
60.98    32
61.0     22
61.02    17
61.04    23
61.06    28
61.08    30
61.1     27
61.12    21
61.14    25
61.16    31
61.18    20
61.2     31
61.22    25
61.24    21
61.26    24
61.28    26
61.3     16
61.32    25
61.34    23
61.36    28
61.38    18
61.4     22
61.42    23
61.44    28
61.46    18
61.48    29
61.5     22
61.52    18
61.54    24
61.56    23
61.58    21
61.6     20
61.62    25
61.64    23
61.66    23
61.68    27
61.7     27
61.72    20
61.74    21
61.76    17
61.78    17
61.8     21
61.82    24
61.84    26
61.86    29
61.88    29
61.9     21
61.92    23
61.94    20
61.96    21
61.98    22
62.0     14
62.02    18
62.04    29
62.06    24
62.08    22
62.1     26
62.12    32
62.14    26
62.16    29
62.18    21
62.2     24
62.22    18
62.24    20
62.26    25
62.28    27
62.3     21
62.32    17
62.34    23
62.36    25
62.38    24
62.4     22
62.42    34
62.44    27
62.46    29
62.48    26
62.5     27
62.52    36
62.54    24
62.56    26
62.58    23
62.6     23
62.62    22
62.64    19
62.66    25
62.68    24
62.7     26
62.72    31
62.74    30
62.76    18
62.78    31
62.8     27
62.82    22
62.84    30
62.86    26
62.88    16
62.9     26
62.92    28
62.94    23
62.96    30
62.98    31
63.0     33
63.02    24
63.04    33
63.06    29
63.08    27
63.1     34
63.12    31
63.14    25
63.16    23
63.18    32
63.2     17
63.22    20
63.24    27
63.26    34
63.28    24
63.3     24
63.32    20
63.34    26
63.36    26
63.38    31
63.4     19
63.42    34
63.44    26
63.46    33
63.48    20
63.5     22
63.52    32
63.54    29
63.56    17
63.58    25
63.6     36
63.62    28
63.64    22
63.66    31
63.68    23
63.7     29
63.72    29
63.74    43
63.76    32
63.78    38
63.8     35
63.82    43
63.84    36
63.86    40
63.88    31
63.9     46
63.92    56
63.94    50
63.96    50
63.98    54
64.0     49
64.02    56
64.04    61
64.06    79
64.08    55
64.1     77
64.12    90
64.14    107
64.16    163
64.18    238
64.2     306
64.22    412
64.24    611
64.26    773
64.28    947
64.3     1051
64.32    1023
64.34    845
64.36    687
64.38    504
64.4     434
64.42    420
64.44    452
64.46    486
64.48    522
64.5     439
64.52    398
64.54    321
64.56    212
64.58    167
64.6     131
64.62    111
64.64    79
64.66    71
64.68    50
64.7     49
64.72    50
64.74    44
64.76    29
64.78    25
64.8     50
64.82    40
64.84    20
64.86    28
64.88    21
64.9     27
64.92    30
64.94    25
64.96    27
64.98    21
65.0     22
65.02    21
65.04    23
65.06    21
65.08    26
65.1     30
65.12    35
65.14    31
65.16    24
65.18    22
65.2     25
65.22    19
65.24    31
65.26    22
65.28    17
65.3     26
65.32    30
65.34    28
65.36    22
65.38    28
65.4     22
65.42    36
65.44    32
65.46    22
65.48    18
65.5     20
65.52    24
65.54    35
65.56    26
65.58    27
65.6     26
65.62    27
65.64    30
65.66    26
65.68    24
65.7     33
65.72    20
65.74    34
65.76    28
65.78    10
65.8     20
65.82    26
65.84    29
65.86    21
65.88    31
65.9     26
65.92    14
65.94    20
65.96    26
65.98    25
66.0     30
66.02    31
66.04    34
66.06    37
66.08    24
66.1     32
66.12    30
66.14    17
66.16    27
66.18    28
66.2     28
66.22    38
66.24    18
66.26    24
66.28    25
66.3     22
66.32    20
66.34    32
66.36    21
66.38    23
66.4     33
66.42    21
66.44    23
66.46    28
66.48    16
66.5     18
66.52    16
66.54    31
66.56    21
66.58    27
66.6     32
66.62    18
66.64    20
66.66    20
66.68    23
66.7     21
66.72    20
66.74    20
66.76    31
66.78    30
66.8     9
66.82    24
66.84    18
66.86    25
66.88    22
66.9     29
66.92    19
66.94    19
66.96    22
66.98    29
67.0     23
67.02    21
67.04    19
67.06    19
67.08    22
67.1     20
67.12    28
67.14    26
67.16    24
67.18    23
67.2     16
67.22    31
67.24    25
67.26    22
67.28    29
67.3     30
67.32    24
67.34    27
67.36    25
67.38    26
67.4     21
67.42    35
67.44    39
67.46    23
67.48    31
67.5     27
67.52    28
67.54    27
67.56    32
67.58    41
67.6     33
67.62    43
67.64    29
67.66    21
67.68    26
67.7     20
67.72    30
67.74    30
67.76    35
67.78    34
67.8     32
67.82    33
67.84    22
67.86    30
67.88    34
67.9     35
67.92    24
67.94    29
67.96    25
67.98    19
68.0     27
68.02    25
68.04    23
68.06    36
68.08    29
68.1     37
68.12    25
68.14    25
68.16    36
68.18    30
68.2     21
68.22    22
68.24    26
68.26    29
68.28    33
68.3     28
68.32    26
68.34    27
68.36    23
68.38    30
68.4     26
68.42    21
68.44    25
68.46    13
68.48    27
68.5     21
68.52    26
68.54    21
68.56    25
68.58    25
68.6     23
68.62    24
68.64    32
68.66    18
68.68    35
68.7     37
68.72    15
68.74    22
68.76    31
68.78    15
68.8     27
68.82    27
68.84    15
68.86    27
68.88    15
68.9     28
68.92    18
68.94    23
68.96    22
68.98    20
69.0     18
69.02    17
69.04    25
69.06    20
69.08    23
69.1     21
69.12    26
69.14    23
69.16    24
69.18    25
69.2     23
69.22    27
69.24    18
69.26    29
69.28    17
69.3     25
69.32    15
69.34    29
69.36    19
69.38    28
69.4     25
69.42    25
69.44    19
69.46    13
69.48    17
69.5     22
69.52    24
69.54    35
69.56    18
69.58    22
69.6     29
69.62    25
69.64    19
69.66    24
69.68    26
69.7     32
69.72    27
69.74    19
69.76    21
69.78    29
69.8     17
69.82    20
69.84    28
69.86    33
69.88    25
69.9     17
69.92    19
69.94    20
69.96    28
69.98    20
70.0     27
70.02    18
70.04    24
70.06    22
70.08    32
70.1     26
70.12    28
70.14    25
70.16    19
70.18    27
70.2     27
70.22    26
70.24    24
70.26    27
70.28    46
70.3     25
70.32    34
70.34    38
70.36    36
70.38    34
70.4     35
70.42    32
70.44    42
70.46    43
70.48    43
70.5     55
70.52    37
70.54    53
70.56    54
70.58    35
70.6     45
70.62    46
70.64    45
70.66    52
70.68    53
70.7     61
70.72    45
70.74    41
70.76    55
70.78    44
70.8     44
70.82    74
70.84    76
70.86    92
70.88    122
70.9     92
70.92    95
70.94    96
70.96    72
70.98    50
71.0     42
71.02    51
71.04    56
71.06    53
71.08    55
71.1     50
71.12    54
71.14    50
71.16    42
71.18    52
71.2     43
71.22    29
71.24    30
71.26    29
71.28    28
71.3     39
71.32    23
71.34    21
71.36    33
71.38    32
71.4     25
71.42    16
71.44    13
71.46    24
71.48    22
71.5     24
71.52    25
71.54    20
71.56    25
71.58    29
71.6     25
71.62    34
71.64    26
71.66    29
71.68    32
71.7     23
71.72    21
71.74    24
71.76    22
71.78    22
71.8     20
71.82    28
71.84    24
71.86    28
71.88    23
71.9     26
71.92    29
71.94    21
71.96    23
71.98    30
72.0     21
72.02    18
72.04    27
72.06    34
72.08    35
72.1     33
72.12    28
72.14    29
72.16    19
72.18    29
72.2     16
72.22    27
72.24    28
72.26    24
72.28    31
72.3     33
72.32    20
72.34    34
72.36    29
72.38    23
72.4     21
72.42    23
72.44    34
72.46    24
72.48    19
72.5     28
72.52    25
72.54    40
72.56    23
72.58    25
72.6     24
72.62    32
72.64    25
72.66    27
72.68    23
72.7     26
72.72    22
72.74    31
72.76    24
72.78    22
72.8     21
72.82    21
72.84    20
72.86    19
72.88    27
72.9     42
72.92    25
72.94    37
72.96    43
72.98    42
73.0     67
73.02    72
73.04    55
73.06    69
73.08    58
73.1     48
73.12    43
73.14    40
73.16    39
73.18    36
73.2     46
73.22    30
73.24    34
73.26    45
73.28    46
73.3     34
73.32    31
73.34    25
73.36    26
73.38    23
73.4     20
73.42    22
73.44    30
73.46    16
73.48    18
73.5     27
73.52    31
73.54    21
73.56    23
73.58    13
73.6     15
73.62    13
73.64    23
73.66    31
73.68    19
73.7     27
73.72    19
73.74    29
73.76    22
73.78    21
73.8     25
73.82    23
73.84    17
73.86    20
73.88    23
73.9     11
73.92    29
73.94    24
73.96    28
73.98    18
74.0     27
74.02    17
74.04    25
74.06    25
74.08    27
74.1     21
74.12    17
74.14    17
74.16    23
74.18    22
74.2     37
74.22    18
74.24    25
74.26    22
74.28    18
74.3     18
74.32    22
74.34    33
74.36    22
74.38    19
74.4     24
74.42    21
74.44    25
74.46    20
74.48    33
74.5     23
74.52    32
74.54    15
74.56    17
74.58    18
74.6     21
74.62    24
74.64    22
74.66    12
74.68    19
74.7     25
74.72    18
74.74    25
74.76    18
74.78    14
74.8     14
74.82    20
74.84    27
74.86    22
74.88    15
74.9     18
74.92    23
74.94    23
74.96    18
74.98    22
75.0     23
75.02    25
75.04    23
75.06    26
75.08    16
75.1     23
75.12    12
75.14    27
75.16    20
75.18    33
75.2     23
75.22    25
75.24    21
75.26    18
75.28    22
75.3     26
75.32    20
75.34    19
75.36    24
75.38    23
75.4     28
75.42    25
75.44    20
75.46    24
75.48    24
75.5     14
75.52    23
75.54    21
75.56    26
75.58    25
75.6     29
75.62    24
75.64    29
75.66    19
75.68    17
75.7     16
75.72    21
75.74    29
75.76    13
75.78    15
75.8     15
75.82    24
75.84    19
75.86    17
75.88    20
75.9     32
75.92    24
75.94    11
75.96    32
75.98    20
76.0     14
76.02    26
76.04    18
76.06    18
76.08    24
76.1     18
76.12    31
76.14    23
76.16    18
76.18    28
76.2     16
76.22    13
76.24    21
76.26    25
76.28    19
76.3     22
76.32    22
76.34    11
76.36    21
76.38    31
76.4     20
76.42    27
76.44    24
76.46    17
76.48    23
76.5     24
76.52    32
76.54    21
76.56    19
76.58    27
76.6     13
76.62    25
76.64    19
76.66    19
76.68    17
76.7     23
76.72    25
76.74    23
76.76    30
76.78    26
76.8     15
76.82    22
76.84    29
76.86    31
76.88    29
76.9     26
76.92    32
76.94    21
76.96    27
76.98    25
77.0     26
77.02    27
77.04    23
77.06    17
77.08    23
77.1     20
77.12    30
77.14    24
77.16    32
77.18    25
77.2     28
77.22    20
77.24    25
77.26    20
77.28    16
77.3     28
77.32    21
77.34    17
77.36    23
77.38    25
77.4     27
77.42    23
77.44    23
77.46    23
77.48    25
77.5     26
77.52    27
77.54    25
77.56    29
77.58    20
77.6     19
77.62    29
77.64    20
77.66    24
77.68    26
77.7     37
77.72    25
77.74    28
77.76    27
77.78    16
77.8     18
77.82    20
77.84    23
77.86    21
77.88    24
77.9     22
77.92    23
77.94    21
77.96    20
77.98    26
78.0     30
78.02    26
78.04    33
78.06    24
78.08    17
78.1     19
78.12    25
78.14    29
78.16    32
78.18    26
78.2     18
78.22    25
78.24    21
78.26    30
78.28    14
78.3     24
78.32    17
78.34    13
78.36    21
78.38    24
78.4     18
78.42    27
78.44    22
78.46    23
78.48    16
78.5     23
78.52    23
78.54    31
78.56    25
78.58    17
78.6     24
78.62    28
78.64    24
78.66    28
78.68    15
78.7     22
78.72    26
78.74    23
78.76    25
78.78    27
78.8     31
78.82    31
78.84    30
78.86    23
78.88    25
78.9     27
78.92    33
78.94    18
78.96    30
78.98    22
79.0     30
79.02    27
79.04    24
79.06    32
79.08    27
79.1     23
79.12    25
79.14    26
79.16    24
79.18    30
79.2     36
79.22    19
79.24    22
79.26    24
79.28    19
79.3     27
79.32    31
79.34    21
79.36    28
79.38    27
79.4     35
79.42    32
79.44    32
79.46    25
79.48    11
79.5     28
79.52    24
79.54    27
79.56    18
79.58    30
79.6     29
79.62    32
79.64    27
79.66    23
79.68    26
79.7     27
79.72    32
79.74    14
79.76    37
79.78    24
79.8     23
79.82    34
79.84    30
79.86    24
79.88    19
79.9     22
79.92    31
79.94    40
79.96    32
79.98    22
80.0     21
80.02    24
80.04    25
80.06    23
80.08    27
80.1     20
80.12    24
80.14    28
80.16    27
80.18    19
80.2     24
80.22    36
80.24    28
80.26    38
80.28    18
80.3     37
80.32    26
80.34    13
80.36    34
80.38    28
80.4     24
80.42    32
80.44    21
80.46    24
80.48    38
80.5     27
80.52    31
80.54    37
80.56    31
80.58    31
80.6     35
80.62    36
80.64    32
80.66    27
80.68    43
80.7     39
80.72    32
80.74    44
80.76    34
80.78    31
80.8     35
80.82    58
80.84    48
80.86    54
80.88    59
80.9     73
80.92    59
80.94    69
80.96    63
80.98    71
81.0     60
81.02    72
81.04    85
81.06    72
81.08    100
81.1     77
81.12    98
81.14    122
81.16    120
81.18    129
81.2     153
81.22    210
81.24    235
81.26    305
81.28    493
81.3     731
81.32    1161
81.34    1614
81.36    2080
81.38    2174
81.4     2019
81.42    1885
81.44    1390
81.46    1015
81.48    847
81.5     631
81.52    558
81.54    528
81.56    586
81.58    802
81.6     899
81.62    1019
81.64    917
81.66    840
81.68    672
81.7     523
81.72    393
81.74    318
81.76    259
81.78    190
81.8     150
81.82    118
81.84    79
81.86    89
81.88    67
81.9     57
81.92    48
81.93    49
81.96    50
81.98    31
82.0     39
82.02    52
82.04    35
82.06    39
82.08    30
82.1     42
82.12    42
82.14    30
82.16    24
82.18    37
82.2     31
82.22    29
82.24    32
82.26    33
82.28    20
82.3     31
82.32    20
82.34    35
82.36    32
82.38    29
82.4     32
82.42    27
82.43    27
82.46    29
82.48    19
82.5     28
82.52    19
82.54    30
82.56    23
82.58    20
82.6     18
82.62    26
82.64    26
82.66    21
82.68    22
82.7     22
82.72    23
82.74    26
82.76    20
82.78    28
82.8     22
82.82    23
82.84    25
82.86    18
82.88    21
82.9     37
82.92    22
82.93    23
82.96    23
82.98    22
83.0     15
83.02    29
83.04    21
83.06    28
83.08    26
83.1     22
83.12    21
83.14    25
83.16    24
83.18    27
83.2     21
83.22    28
83.24    27
83.26    29
83.28    22
83.3     23
83.32    23
83.34    22
83.36    25
83.38    22
83.4     25
83.42    21
83.43    20
83.46    24
83.48    30
83.5     19
83.52    20
83.54    19
83.56    23
83.58    28
83.6     18
83.62    22
83.64    20
83.66    23
83.68    21
83.7     16
83.72    11
83.74    21
83.76    25
83.78    20
83.8     24
83.82    30
83.84    32
83.86    27
83.88    23
83.9     30
83.92    20
83.93    23
83.96    16
83.98    27
84.0     22
84.02    30
84.04    24
84.06    19
84.08    24
84.1     22
84.12    21
84.14    22
84.16    24
84.18    28
84.2     24
84.22    17
84.24    18
84.26    25
84.28    24
84.3     19
84.32    22
84.34    19
84.36    29
84.38    27
84.4     18
84.42    23
84.43    19
84.46    23
84.48    26
84.5     23
84.52    19
84.54    31
84.56    22
84.58    25
84.6     31
84.62    20
84.64    22
84.66    25
84.68    28
84.7     20
84.72    23
84.74    27
84.76    24
84.78    24
84.8     24
84.82    26
84.84    22
84.86    25
84.88    25
84.9     22
84.92    26
84.93    20
84.96    36
84.98    27
85.0     31
85.02    26
85.04    30
85.06    23
85.08    26
85.1     24
85.12    26
85.14    30
85.16    29
85.18    36
85.2     19
85.22    16
85.24    38
85.26    32
85.28    27
85.3     34
85.32    21
85.34    26
85.36    26
85.38    28
85.4     37
85.42    36
85.43    19
85.46    31
85.48    28
85.5     39
85.52    27
85.54    15
85.56    24
85.58    27
85.6     21
85.62    24
85.64    29
85.66    23
85.68    20
85.7     26
85.72    24
85.74    23
85.76    28
85.78    24
85.8     25
85.82    24
85.84    18
85.86    23
85.88    20
85.9     30
85.92    18
85.93    19
85.96    30
85.98    25
86.0     24
86.02    19
86.04    19
86.06    20
86.08    24
86.1     27
86.12    11
86.14    25
86.16    13
86.18    18
86.2     21
86.22    26
86.24    23
86.26    15
86.28    28
86.3     16
86.32    20
86.34    17
86.36    19
86.38    29
86.4     19
86.42    21
86.43    22
86.46    23
86.48    21
86.5     19
86.52    18
86.54    22
86.56    23
86.58    21
86.6     28
86.62    24
86.64    26
86.66    27
86.68    33
86.7     21
86.72    23
86.74    21
86.76    23
86.78    17
86.8     21
86.82    20
86.84    20
86.86    18
86.88    19
86.9     40
86.92    26
86.93    23
86.96    23
86.98    18
87.0     27
87.02    20
87.04    17
87.06    24
87.08    33
87.1     23
87.12    15
87.14    22
87.16    26
87.18    28
87.2     22
87.22    31
87.24    23
87.26    20
87.28    22
87.3     34
87.32    25
87.34    24
87.36    30
87.38    26
87.4     30
87.42    34
87.43    53
87.46    60
87.48    84
87.5     67
87.52    69
87.54    66
87.56    87
87.58    55
87.6     52
87.62    44
87.64    51
87.66    34
87.68    32
87.7     37
87.72    31
87.74    43
87.76    49
87.78    44
87.8     39
87.82    47
87.84    40
87.86    40
87.88    27
87.9     36
87.92    34
87.93    27
87.96    26
87.98    27
88.0     24
88.02    27
88.04    28
88.06    29
88.08    21
88.1     25
88.12    19
88.14    24
88.16    22
88.18    26
88.2     19
88.22    25
88.24    25
88.26    21
88.28    34
88.3     24
88.32    17
88.34    28
88.36    22
88.38    17
88.4     27
88.42    18
88.43    25
88.46    15
88.48    25
88.5     20
88.52    19
88.54    18
88.56    16
88.58    22
88.6     13
88.62    22
88.64    16
88.66    15
88.68    30
88.7     26
88.72    24
88.74    18
88.76    15
88.78    22
88.8     15
88.82    25
88.84    31
88.86    24
88.88    21
88.9     25
88.92    21
88.93    23
88.96    27
88.98    27
89.0     25
89.02    29
89.04    28
89.06    23
89.08    21
89.1     19
89.12    20
89.14    28
89.16    14
89.18    22
89.2     18
89.22    31
89.24    24
89.26    26
89.28    23
89.3     24
89.32    26
89.34    21
89.36    32
89.38    27
89.4     27
89.42    30
89.43    26
89.46    31
89.48    20
89.5     20
89.52    20
89.54    23
89.56    26
89.58    31
89.6     18
89.62    22
89.64    23
89.66    24
89.68    28
89.7     30
89.72    35
89.74    21
89.76    20
89.78    21
89.8     26
89.82    24
89.84    21
89.86    19
89.88    23
89.9     20
89.92    30
89.93    19
89.96    18
89.98    34
90.0     26
90.02    38
90.04    21
90.06    37
90.08    24
90.1     23
90.12    20
90.14    32
90.16    18
90.18    36
90.2     25
90.22    23
90.24    17
90.26    20
90.28    27
90.3     27
90.32    19
90.34    25
90.36    30
90.38    22
90.4     21
90.42    22
90.43    27
90.46    23
90.48    36
90.5     18
90.52    21
90.54    8
90.56    21
90.58    12
90.6     22
90.62    16
90.64    21
90.66    26
90.68    23
90.7     16
90.72    25
90.74    29
90.76    21
90.78    21
90.8     20
90.82    19
90.84    21
90.86    21
90.88    27
90.9     28
90.92    19
90.93    24
90.96    23
90.98    15
91.0     14
91.02    26
91.04    31
91.06    38
91.08    25
91.1     22
91.12    27
91.14    22
91.16    30
91.18    21
91.2     27
91.22    16
91.24    26
91.26    23
91.28    22
91.3     16
91.32    22
91.34    29
91.36    21
91.38    21
91.4     17
91.42    21
91.43    24
91.46    25
91.48    14
91.5     23
91.52    18
91.54    19
91.56    21
91.58    22
91.6     21
91.62    21
91.64    27
91.66    17
91.68    18
91.7     20
91.72    19
91.74    25
91.76    25
91.78    23
91.8     22
91.82    20
91.84    28
91.86    26
91.88    21
91.9     22
91.92    19
91.93    17
91.96    20
91.98    21
92.0     28
92.02    24
92.04    21
92.06    28
92.08    20
92.1     22
92.12    33
92.14    21
92.16    11
92.18    18
92.2     20
92.22    18
92.24    25
92.26    24
92.28    22
92.3     25
92.32    23
92.34    13
92.36    26
92.38    25
92.4     20
92.42    21
92.43    24
92.46    26
92.48    18
92.5     16
92.52    26
92.54    21
92.56    27
92.58    34
92.6     30
92.62    21
92.64    20
92.66    33
92.68    13
92.7     16
92.72    12
92.74    28
92.76    29
92.78    25
92.8     20
92.82    21
92.84    31
92.86    26
92.88    20
92.9     24
92.92    21
92.93    28
92.96    28
92.98    19
93.0     23
93.02    19
93.04    23
93.06    20
93.08    23
93.1     19
93.12    22
93.14    17
93.16    17
93.18    27
93.2     21
93.22    16
93.24    22
93.26    23
93.28    22
93.3     14
93.32    28
93.34    26
93.36    35
93.38    25
93.4     21
93.42    24
93.43    15
93.46    23
93.48    20
93.5     14
93.52    24
93.54    17
93.56    22
93.58    14
93.6     29
93.62    16
93.64    30
93.66    18
93.68    26
93.7     26
93.72    28
93.74    21
93.76    18
93.78    25
93.8     13
93.82    24
93.84    14
93.86    22
93.88    19
93.9     26
93.92    24
93.93    26
93.96    19
93.98    23
94.0     20
94.02    20
94.04    20
94.06    22
94.08    28
94.1     25
94.12    28
94.14    24
94.16    18
94.18    11
94.2     19
94.22    25
94.24    25
94.26    19
94.28    26
94.3     25
94.32    25
94.34    13
94.36    20
94.38    24
94.4     17
94.42    14
94.43    31
94.46    23
94.48    29
94.5     30
94.52    19
94.54    18
94.56    30
94.58    20
94.6     20
94.62    23
94.64    19
94.66    16
94.68    27
94.7     16
94.72    27
94.74    25
94.76    21
94.78    33
94.8     18
94.82    28
94.84    24
94.86    20
94.88    26
94.9     26
94.92    24
94.93    26
94.96    35
94.98    24
95.0     24
95.02    14
95.04    28
95.06    26
95.08    28
95.1     21
95.12    19
95.14    24
95.16    21
95.18    29
95.2     25
95.22    27
95.24    18
95.25    28
95.28    20
95.3     26
95.32    23
95.34    23
95.36    21
95.38    22
95.4     24
95.42    25
95.43    31
95.46    29
95.48    26
95.5     26
95.52    23
95.54    33
95.56    21
95.58    25
95.6     23
95.62    20
95.64    26
95.66    24
95.68    16
95.7     10
95.72    21
95.74    23
95.75    25
95.78    33
95.8     24
95.82    27
95.84    26
95.86    24
95.88    21
95.9     28
95.92    25
95.93    25
95.96    32
95.98    25
96.0     25
96.02    27
96.04    24
96.06    26
96.08    30
96.1     28
96.12    19
96.14    16
96.16    23
96.18    29
96.2     22
96.22    27
96.24    18
96.25    27
96.28    33
96.3     23
96.32    18
96.34    20
96.36    23
96.38    21
96.4     19
96.42    25
96.43    24
96.46    23
96.48    22
96.5     17
96.52    30
96.54    26
96.56    20
96.58    28
96.6     27
96.62    14
96.64    24
96.66    21
96.68    23
96.7     26
96.72    18
96.74    21
96.75    25
96.78    21
96.8     27
96.82    14
96.84    30
96.86    27
96.88    30
96.9     21
96.92    29
96.93    14
96.96    22
96.98    26
97.0     24
97.02    34
97.04    27
97.06    35
97.08    29
97.1     35
97.12    28
97.14    37
97.16    33
97.18    26
97.2     29
97.22    38
97.24    38
97.25    25
97.28    27
97.3     33
97.32    53
97.34    38
97.36    36
97.38    40
97.4     45
97.42    45
97.43    53
97.46    49
97.48    55
97.5     50
97.52    66
97.54    77
97.56    105
97.58    114
97.6     143
97.62    187
97.64    266
97.66    331
97.68    385
97.7     430
97.72    419
97.74    355
97.75    338
97.78    317
97.8     274
97.82    230
97.84    211
97.86    163
97.88    142
97.9     149
97.92    137
97.93    148
97.96    158
97.98    186
98.0     217
98.02    205
98.04    235
98.06    199
98.08    159
98.1     178
98.12    140
98.14    124
98.16    102
98.18    85
98.2     82
98.22    68
98.24    74
98.25    64
98.28    64
98.3     44
98.32    45
98.34    31
98.36    34
98.38    38
98.4     36
98.42    34
98.43    30
98.46    29
98.48    32
98.5     35
98.52    30
98.54    27
98.56    28
98.58    26
98.6     25
98.62    22
98.64    37
98.66    30
98.68    30
98.7     25
98.72    19
98.74    26
98.75    24
98.78    23
98.8     23
98.82    20
98.84    33
98.86    25
98.88    30
98.9     26
98.92    29
98.93    21
98.96    16
98.98    21
99.0     36
99.02    28
99.04    30
99.06    17
99.08    17
99.1     13
99.12    31
99.14    28
99.16    23
99.18    35
99.2     26
99.22    22
99.24    11
99.25    29
99.28    22
99.3     26
99.32    19
99.34    22
99.36    25
99.38    22
99.4     24
99.42    25
99.43    31
99.46    23
99.48    25
99.5     30
99.52    22
99.54    26
99.56    20
99.58    14
99.6     24
99.62    22
99.64    16
99.66    24
99.68    18
99.7     29
99.72    25
99.74    20
99.75    27
99.78    16
99.8     23
99.82    16
99.84    25
99.86    21
99.88    26
99.9     19
99.92    22
99.93    19
99.96    20
99.98    24
100.0    25
100.02   22
100.04   20
100.06   24
100.08   29
100.1    21
100.12   34
100.14   16
100.16   30
100.18   20
100.2    24
100.22   20
100.24   22
100.26   27
100.28   22
100.3    30
100.32   20
100.34   21
100.36   34
100.38   19
100.4    27
100.42   13
100.44   24
100.46   22
100.48   20
100.5    23
100.52   21
100.54   22
100.56   19
100.58   19
100.6    17
100.62   25
100.64   19
100.66   22
100.68   25
100.7    22
100.72   23
100.74   28
100.76   22
100.78   31
100.8    18
100.82   24
100.84   18
100.86   22
100.88   32
100.9    22
100.92   13
100.94   26
100.96   24
100.98   25
101.0    26
101.02   20
101.04   24
101.06   31
101.08   26
101.1    17
101.12   18
101.14   23
101.16   19
101.18   25
101.2    21
101.22   28
101.24   14
101.26   17
101.28   31
101.3    24
101.32   27
101.34   25
101.36   27
101.38   29
101.4    18
101.42   27
101.44   15
101.46   24
101.48   20
101.5    25
101.52   21
101.54   34
101.56   18
101.58   29
101.6    16
101.62   29
101.64   28
101.66   29
101.68   26
101.7    23
101.72   29
101.74   31
101.76   32
101.78   33
101.8    25
101.82   24
101.84   19
101.86   28
101.88   22
101.9    25
101.92   23
101.94   29
101.96   18
101.98   22
102.0    24
102.02   23
102.04   22
102.06   20
102.08   23
102.1    35
102.12   22
102.14   30
102.16   23
102.18   37
102.2    24
102.22   19
102.24   17
102.26   29
102.28   17
102.3    26
102.32   23
102.34   24
102.36   32
102.38   32
102.4    24
102.42   24
102.44   21
102.46   22
102.48   30
102.5    11
102.52   27
102.54   24
102.56   23
102.58   28
102.6    21
102.62   28
102.64   23
102.66   25
102.68   16
102.7    25
102.72   20
102.74   23
102.76   21
102.78   22
102.8    18
102.82   18
102.84   11
102.86   18
102.88   19
102.9    16
102.92   26
102.94   26
102.96   15
102.98   24
103.0    23
103.02   29
103.04   18
103.06   29
103.08   28
103.1    25
103.12   28
103.14   20
103.16   26
103.18   23
103.2    30
103.22   20
103.24   23
103.26   34
103.28   30
103.3    19
103.32   24
103.34   21
103.36   16
103.38   28
103.4    28
103.42   17
103.44   33
103.46   26
103.48   31
103.5    23
103.52   31
103.54   27
103.56   23
103.58   19
103.6    27
103.62   25
103.64   29
103.66   32
103.68   25
103.7    35
103.72   29
103.74   31
103.76   30
103.78   28
103.8    42
103.82   39
103.84   55
103.86   56
103.88   55
103.9    64
103.92   82
103.94   66
103.96   52
103.98   57
104.0    55
104.02   34
104.04   46
104.06   37
104.08   37
104.1    22
104.12   34
104.14   25
104.16   30
104.18   38
104.2    38
104.22   51
104.24   50
104.26   43
104.28   36
104.3    42
104.32   36
104.34   47
104.36   32
104.38   41
104.4    31
104.42   27
104.44   25
104.46   32
104.48   35
104.5    27
104.52   20
104.54   30
104.56   22
104.58   18
104.6    29
104.62   22
104.64   28
104.66   26
104.68   22
104.7    22
104.72   17
104.74   23
104.76   17
104.78   23
104.8    20
104.82   25
104.84   26
104.86   29
104.88   21
104.9    26
104.92   22
104.94   24
104.96   28
104.98   13
105.0    23
105.02   33
105.04   25
105.06   25
105.08   28
105.1    26
105.12   20
105.14   36
105.16   25
105.18   25
105.2    27
105.22   29
105.24   20
105.26   28
105.28   25
105.3    27
105.32   30
105.34   20
105.36   26
105.38   32
105.4    31
105.42   26
105.44   25
105.46   28
105.48   25
105.5    20
105.52   22
105.54   25
105.56   22
105.58   21
105.6    18
105.62   23
105.64   24
105.66   32
105.68   22
105.7    17
105.72   25
105.74   29
105.76   24
105.78   32
105.8    25
105.82   20
105.84   27
105.86   24
105.88   24
105.9    26
105.92   40
105.94   27
105.96   30
105.98   39
106.0    33
106.02   30
106.04   46
106.06   26
106.08   32
106.1    33
106.12   39
106.14   37
106.16   24
106.18   32
106.2    24
106.22   34
106.24   20
106.26   23
106.28   33
106.3    35
106.32   28
106.34   24
106.36   16
106.38   25
106.4    34
106.42   29
106.44   28
106.46   31
106.48   18
106.5    26
106.52   26
106.54   21
106.56   29
106.58   24
106.6    18
106.62   21
106.64   29
106.66   30
106.68   34
106.7    20
106.72   16
106.74   22
106.76   34
106.78   12
106.8    24
106.82   26
106.84   28
106.86   28
106.88   25
106.9    25
106.92   34
106.94   26
106.96   20
106.98   12
107.0    13
107.02   24
107.04   28
107.06   27
107.08   28
107.1    26
107.12   21
107.14   23
107.16   28
107.18   26
107.2    27
107.22   26
107.24   27
107.26   27
107.28   26
107.3    26
107.32   23
107.34   14
107.36   26
107.38   35
107.4    26
107.42   15
107.44   21
107.46   22
107.48   30
107.5    19
107.52   19
107.54   22
107.56   24
107.58   25
107.6    24
107.62   18
107.64   23
107.66   20
107.68   19
107.7    30
107.72   17
107.74   28
107.76   20
107.78   27
107.8    19
107.82   26
107.84   25
107.86   24
107.88   19
107.9    22
107.92   25
107.94   20
107.96   22
107.98   23
108.0    23
108.02   22
108.04   35
108.06   35
108.08   23
108.1    23
108.12   24
108.14   24
108.16   25
108.18   20
108.2    25
108.22   16
108.24   18
108.26   23
108.28   34
108.3    19
108.32   26
108.34   14
108.36   25
108.38   26
108.4    27
108.42   17
108.44   31
108.46   23
108.48   31
108.5    27
108.52   30
108.54   24
108.56   24
108.58   25
108.6    23
108.62   29
108.64   19
108.66   27
108.68   18
108.7    19
108.72   26
108.74   21
108.76   19
108.78   29
108.8    29
108.82   16
108.84   31
108.86   27
108.88   26
108.9    19
108.92   27
108.94   23
108.96   26
108.98   22
109.0    23
109.02   23
109.04   30
109.06   30
109.08   24
109.1    15
109.12   17
109.14   29
109.16   20
109.18   26
109.2    24
109.22   20
109.24   31
109.26   38
109.28   28
109.3    19
109.32   26
109.34   24
109.36   26
109.38   18
109.4    28
109.42   20
109.44   32
109.46   23
109.48   21
109.5    30
109.52   31
109.54   35
109.56   22
109.58   32
109.6    24
109.62   24
109.64   21
109.66   24
109.68   23
109.7    29
109.72   24
109.74   28
109.76   27
109.78   26
109.8    26
109.82   20
109.84   26
109.86   26
109.88   29
109.9    23
109.92   23
109.94   30
109.96   29
109.98   28
110.0    28
110.02   38
110.04   30
110.06   23
110.08   23
110.1    22
110.12   31
110.14   21
110.16   20
110.18   37
110.2    32
110.22   29
110.24   31
110.26   27
110.28   24
110.3    35
110.32   27
110.34   25
110.36   22
110.38   29
110.4    19
110.42   26
110.44   22
110.46   37
110.48   21
110.5    22
110.52   29
110.54   13
110.56   22
110.58   20
110.6    31
110.62   23
110.64   27
110.66   25
110.68   22
110.7    37
110.72   30
110.74   28
110.76   31
110.78   23
110.8    31
110.82   25
110.84   25
110.86   25
110.88   24
110.9    17
110.92   31
110.94   26
110.96   38
110.98   31
111.0    17
111.02   24
111.04   22
111.06   24
111.08   33
111.1    22
111.12   22
111.14   23
111.16   22
111.18   23
111.2    25
111.22   32
111.24   31
111.26   28
111.28   29
111.3    27
111.32   27
111.34   20
111.36   26
111.38   33
111.4    27
111.42   27
111.44   26
111.46   19
111.48   33
111.5    29
111.52   28
111.54   28
111.56   24
111.58   26
111.6    27
111.62   36
111.64   36
111.66   21
111.68   17
111.7    24
111.72   34
111.74   25
111.76   30
111.78   28
111.8    23
111.82   27
111.84   22
111.86   20
111.88   29
111.9    29
111.92   34
111.94   37
111.96   23
111.98   19
112.0    23
112.02   23
112.04   25
112.06   17
112.08   26
112.1    22
112.12   29
112.14   26
112.16   25
112.18   27
112.2    19
112.22   26
112.24   25
112.26   25
112.28   24
112.3    23
112.32   29
112.34   28
112.36   37
112.38   31
112.4    20
112.42   22
112.44   21
112.46   28
112.48   31
112.5    25
112.52   24
112.54   23
112.56   22
112.58   29
112.6    19
112.62   22
112.64   27
112.66   31
112.68   21
112.7    18
112.72   35
112.74   26
112.76   23
112.78   23
112.8    35
112.82   23
112.84   21
112.86   40
112.88   25
112.9    24
112.92   30
112.94   28
112.96   28
112.98   24
113.0    31
113.02   25
113.04   16
113.06   26
113.08   23
113.1    18
113.12   24
113.14   22
113.16   24
113.18   23
113.2    34
113.22   24
113.24   21
113.26   31
113.28   33
113.3    23
113.32   22
113.34   31
113.36   33
113.38   33
113.4    30
113.42   20
113.44   23
113.46   30
113.48   29
113.5    29
113.52   28
113.54   25
113.56   33
113.58   22
113.6    29
113.62   31
113.64   29
113.66   33
113.68   38
113.7    30
113.72   28
113.74   35
113.76   35
113.78   35
113.8    45
113.82   43
113.84   40
113.86   43
113.88   39
113.9    30
113.92   46
113.94   43
113.96   33
113.98   45
114.0    48
114.02   35
114.04   40
114.06   34
114.08   36
114.1    36
114.12   53
114.14   45
114.16   51
114.18   61
114.2    50
114.22   59
114.24   45
114.26   71
114.28   47
114.3    64
114.32   56
114.34   72
114.36   77
114.38   85
114.4    92
114.42   85
114.44   100
114.46   110
114.48   134
114.5    172
114.52   155
114.54   234
114.56   289
114.58   349
114.6    443
114.62   545
114.64   731
114.66   860
114.68   972
114.7    1062
114.72   1116
114.74   970
114.76   886
114.78   719
114.8    615
114.82   554
114.84   466
114.86   435
114.88   346
114.9    323
114.92   267
114.94   263
114.96   245
114.98   241
115.0    203
115.02   200
115.04   271
115.06   321
115.08   357
115.1    380
115.12   412
115.14   483
115.16   501
115.18   461
115.2    409
115.22   405
115.24   360
115.26   309
115.28   252
115.3    199
115.32   192
115.34   161
115.36   147
115.38   121
115.4    111
115.42   101
115.44   75
115.46   78
115.48   87
115.5    60
115.52   68
115.54   59
115.56   52
115.58   45
115.6    47
115.62   39
115.64   45
115.66   44
115.68   43
115.7    42
115.72   32
115.74   34
115.76   29
115.78   40
115.8    26
115.82   43
115.84   36
115.86   31
115.88   38
115.9    27
115.92   28
115.94   26
115.96   40
115.98   30
116.0    38
116.02   29
116.04   31
116.06   38
116.08   22
116.1    29
116.12   31
116.14   31
116.16   24
116.18   29
116.2    29
116.22   29
116.24   34
116.26   33
116.28   25
116.3    37
116.32   39
116.34   28
116.36   24
116.38   39
116.4    26
116.42   21
116.44   25
116.46   30
116.48   29
116.5    22
116.52   19
116.54   30
116.56   29
116.58   35
116.6    26
116.62   38
116.64   29
116.66   25
116.68   28
116.7    28
116.72   30
116.74   30
116.76   21
116.78   28
116.8    25
116.82   28
116.84   24
116.86   26
116.88   28
116.9    14
116.92   19
116.94   26
116.96   17
116.98   34
117.0    45
117.02   24
117.04   24
117.06   17
117.08   25
117.1    27
117.12   31
117.14   32
117.16   29
117.18   33
117.2    25
117.22   23
117.24   23
117.26   19
117.28   28
117.3    21
117.32   21
117.34   25
117.36   21
117.38   33
117.4    23
117.42   32
117.44   21
117.46   21
117.48   24
117.5    23
117.52   24
117.54   27
117.56   20
117.58   31
117.6    21
117.62   21
117.64   26
117.66   25
117.68   21
117.7    29
117.72   34
117.74   32
117.76   42
117.78   18
117.8    17
117.82   23
117.84   19
117.86   26
117.88   25
117.9    24
117.92   20
117.94   18
117.96   18
117.98   21
118.0    25
118.02   27
118.04   23
118.06   26
118.08   22
118.1    15
118.12   29
118.14   19
118.16   29
118.18   27
118.2    20
118.22   26
118.24   23
118.26   19
118.28   21
118.3    30
118.32   25
118.34   23
118.36   24
118.38   27
118.4    26
118.42   20
118.44   24
118.46   26
118.48   20
118.5    23
118.52   13
118.54   31
118.56   29
118.58   27
118.6    26
118.62   19
118.64   35
118.66   25
118.68   21
118.7    14
118.72   30
118.74   15
118.76   23
118.78   24
118.8    18
118.82   23
118.84   24
118.86   20
118.88   19
118.9    22
118.92   24
118.94   27
118.96   23
118.98   29
119.0    26
119.02   26
119.04   19
119.06   24
119.08   34
119.1    31
119.12   23
119.14   26
119.16   25
119.18   22
119.2    20
119.22   30
119.24   26
119.26   27
119.28   27
119.3    28
119.32   30
119.34   23
119.36   20
119.38   29
119.4    28
119.42   22
119.44   22
119.46   23
119.48   19
119.5    21
119.52   22
119.54   18
119.56   26
119.58   25
119.6    26
119.62   25
119.64   22
119.66   21
119.68   21
119.7    20
119.72   23
119.74   26
119.76   18
119.78   30
119.8    27
119.82   24
119.84   16
119.86   34
119.88   23
119.9    16
119.92   30
119.94   30
119.96   22
119.98   30
120.0    29
120.02   24
120.04   25
120.06   21
120.08   29
120.1    19
120.12   28
120.14   31
120.16   28
120.18   26
120.2    29
120.22   27
120.24   33
120.26   16
120.28   35
120.3    16
120.32   26
120.34   17
120.36   25
120.38   26
120.4    22
120.42   23
120.44   19
120.46   27
120.48   29
120.5    29
120.52   32
120.54   20
120.56   27
120.58   14
120.6    24
120.62   27
120.64   21
120.66   32
120.68   29
120.7    14
120.72   28
120.74   18
120.76   19
120.78   23
120.8    14
120.82   23
120.84   25
120.86   19
120.88   26
120.9    32
120.92   16
120.94   16
120.96   23
120.98   22
121.0    28
121.02   20
121.04   33
121.06   30
121.08   25
121.1    22
121.12   28
121.14   23
121.16   24
121.18   27
121.2    29
121.22   32
121.24   25
121.26   21
121.28   28
121.3    30
121.32   24
121.34   27
121.36   32
121.38   22
121.4    33
121.42   24
121.44   28
121.46   22
121.48   25
121.5    26
121.52   40
121.54   33
121.56   28
121.58   49
121.6    37
121.62   42
121.64   44
121.66   51
121.68   34
121.7    48
121.72   48
121.74   39
121.76   39
121.78   21
121.8    38
121.82   27
121.84   43
121.86   29
121.88   39
121.9    16
121.92   25
121.94   32
121.96   30
121.98   16
122.0    28
122.02   37
122.04   26
122.06   30
122.08   27
122.1    26
122.12   27
122.14   39
122.16   29
122.18   40
122.2    37
122.22   38
122.24   28
122.26   31
122.28   43
122.3    20
122.32   31
122.34   26
122.36   22
122.38   25
122.4    27
122.42   28
122.44   24
122.46   29
122.48   30
122.5    15
122.52   23
122.54   16
122.56   23
122.58   28
122.6    25
122.62   28
122.64   21
122.66   24
122.68   17
122.7    28
122.72   25
122.74   24
122.76   23
122.78   28
122.8    24
122.82   27
122.84   28
122.86   35
122.88   18
122.9    23
122.92   24
122.94   23
122.96   23
122.98   19
123.0    21
123.02   14
123.04   17
123.06   24
123.08   23
123.1    29
123.12   19
123.14   31
123.16   30
123.18   21
123.2    15
123.22   27
123.24   18
123.26   24
123.28   31
123.3    20
123.32   26
123.34   28
123.36   28
123.38   25
123.4    22
123.42   21
123.44   29
123.46   29
123.48   19
123.5    22
123.52   21
123.54   28
123.56   20
123.58   31
123.6    29
123.62   24
123.64   23
123.66   26
123.68   23
123.7    27
123.72   24
123.74   26
123.76   26
123.78   26
123.8    26
123.82   20
123.84   33
123.86   28
123.88   29
123.9    30
123.92   42
123.94   35
123.96   34
123.98   35
124.0    36
124.02   40
124.04   36
124.06   35
124.08   24
124.1    40
124.12   33
124.14   36
124.16   37
124.18   27
124.2    23
124.22   33
124.24   35
124.26   30
124.28   23
124.3    36
124.32   29
124.34   33
124.36   31
124.38   27
124.4    21
124.42   29
124.44   37
124.46   34
124.48   22
124.5    37
124.52   28
124.54   33
124.56   39
124.58   34
124.6    30
124.62   29
124.64   29
124.66   27
124.68   33
124.7    22
124.72   22
124.74   27
124.76   33
124.78   20
124.8    34
124.82   19
124.84   28
124.86   23
124.88   37
124.9    25
124.92   24
124.94   21
124.96   15
124.98   25
125.0    31
125.02   33
125.04   26
125.06   26
125.08   30
125.1    22
125.12   22
125.14   20
125.16   21
125.18   31
125.2    31
125.22   30
125.24   27
125.26   24
125.28   29
125.3    19
125.32   28
125.34   22
125.36   31
125.38   28
125.4    20
125.42   34
125.44   37
125.46   18
125.48   25
125.5    19
125.52   36
125.54   23
125.56   28
125.58   31
125.6    16
125.62   27
125.64   28
125.66   31
125.68   30
125.7    29
125.72   17
125.74   27
125.76   30
125.78   34
125.8    28
125.82   30
125.84   35
125.86   37
125.88   30
125.9    28
125.92   29
125.94   20
125.96   37
125.98   30
126.0    35
126.02   36
126.04   26
126.06   30
126.08   41
126.1    34
126.12   20
126.14   32
126.16   35
126.18   22
126.2    18
126.22   33
126.24   37
126.26   32
126.28   29
126.3    23
126.32   24
126.34   29
126.36   32
126.38   26
126.4    26
126.42   25
126.44   26
126.46   28
126.48   35
126.5    17
126.52   29
126.54   26
126.56   33
126.58   29
126.6    28
126.62   22
126.64   27
126.66   27
126.68   25
126.7    16
126.72   25
126.74   31
126.76   28
126.78   30
126.8    26
126.82   26
126.84   32
126.86   19
126.88   35
126.9    32
126.92   32
126.94   26
126.96   40
126.98   23
127.0    16
127.02   29
127.04   35
127.06   33
127.08   28
127.1    21
127.12   27
127.14   22
127.16   36
127.18   24
127.2    18
127.22   21
127.24   34
127.26   33
127.28   25
127.3    22
127.32   23
127.34   24
127.36   23
127.38   23
127.4    25
127.42   35
127.44   36
127.46   26
127.48   30
127.5    19
127.52   28
127.54   33
127.56   23
127.58   26
127.6    30
127.62   17
127.64   30
127.66   28
127.68   35
127.7    35
127.72   27
127.74   23
127.76   25
127.78   30
127.8    27
127.82   17
127.84   27
127.86   29
127.88   23
127.9    27
127.92   29
127.94   27
127.96   28
127.98   24
128.0    17
128.02   31
128.04   24
128.06   28
128.08   24
128.1    21
128.12   35
128.14   27
128.16   32
128.18   15
128.2    21
128.22   21
128.24   16
128.26   26
128.28   24
128.3    26
128.32   30
128.34   30
128.36   25
128.38   20
128.4    28
128.42   27
128.44   24
128.46   21
128.48   26
128.5    22
128.52   31
128.54   32
128.56   26
128.58   31
128.6    31
128.62   31
128.64   27
128.66   26
128.68   32
128.7    20
128.72   33
128.74   27
128.76   28
128.78   23
128.8    28
128.82   24
128.84   29
128.86   23
128.88   23
128.9    24
128.92   31
128.94   32
128.96   28
128.98   23
129.0    27
129.02   26
129.04   28
129.06   19
129.08   24
129.1    22
129.12   26
129.14   27
129.16   29
129.18   21
129.2    18
129.22   21
129.24   29
129.26   33
129.28   34
129.3    32
129.32   29
129.34   17
129.36   21
129.38   29
129.4    19
129.42   29
129.44   19
129.46   16
129.48   29
129.5    21
129.52   27
129.54   31
129.56   23
129.58   21
129.6    18
129.62   27
129.64   30
129.66   19
129.68   30
129.7    25
129.72   34
129.74   25
129.76   22
129.78   24
129.8    30
129.82   24
129.84   30
129.86   16
129.88   19
129.9    28
129.92   25
129.94   19
129.96   28
129.98   28
130.0    23
130.02   28
130.04   39
130.06   22
130.08   22
130.1    27
130.12   28
130.14   30
130.16   19
130.18   23
130.2    25
130.22   26
130.24   25
130.26   27
130.28   23
130.3    30
130.32   27
130.34   32
130.36   30
130.38   29
130.4    24
130.42   24
130.44   30
130.46   29
130.48   26
130.5    25
130.52   24
130.54   32
130.56   23
130.58   17
130.6    32
130.62   26
130.64   32
130.66   19
130.68   29
130.7    27
130.72   31
130.74   28
130.76   19
130.78   27
130.8    23
130.82   28
130.84   20
130.86   27
130.88   24
130.9    26
130.92   28
130.94   38
130.96   21
130.98   21
131.0    25
131.02   24
131.04   20
131.06   33
131.08   23
131.1    31
131.12   38
131.14   25
131.16   30
131.18   31
131.2    38
131.22   33
131.24   36
131.26   35
131.28   28
131.3    23
131.32   29
131.34   31
131.36   27
131.38   30
131.4    31
131.42   40
131.44   19
131.46   31
131.48   29
131.5    31
131.52   21
131.54   31
131.56   27
131.58   37
131.6    18
131.62   34
131.64   33
131.66   20
131.68   20
131.7    35
131.72   40
131.74   27
131.76   28
131.78   30
131.8    31
131.82   27
131.84   33
131.86   39
131.88   26
131.9    33
131.92   34
131.94   27
131.96   30
131.98   20
132.0    32
132.02   29
132.04   27
132.06   25
132.08   30
132.1    20
132.12   33
132.14   27
132.16   40
132.18   29
132.2    22
132.22   28
132.24   34
132.26   32
132.28   26
132.3    32
132.32   31
132.34   34
132.36   25
132.38   31
132.4    34
132.42   21
132.44   27
132.46   25
132.48   30
132.5    20
132.52   33
132.54   31
132.56   24
132.58   32
132.6    37
132.62   20
132.64   32
132.66   28
132.68   24
132.7    29
132.72   31
132.74   30
132.76   30
132.78   28
132.8    29
132.82   30
132.84   35
132.86   37
132.88   37
132.9    19
132.92   34
132.94   30
132.96   30
132.98   18
133.0    27
133.02   16
133.04   30
133.06   30
133.08   22
133.1    32
133.12   25
133.14   41
133.16   29
133.18   27
133.2    31
133.22   26
133.24   30
133.26   26
133.28   35
133.3    37
133.32   42
133.34   24
133.36   26
133.38   31
133.4    25
133.42   32
133.44   23
133.46   25
133.48   28
133.5    29
133.52   31
133.54   29
133.56   19
133.58   35
133.6    21
133.62   29
133.64   28
133.66   35
133.68   32
133.7    33
133.72   20
133.74   31
133.76   38
133.78   33
133.8    27
133.82   40
133.84   30
133.86   36
133.88   31
133.9    33
133.92   40
133.94   29
133.96   37
133.98   33
134.0    28
134.02   26
134.04   47
134.06   53
134.08   36
134.1    30
134.12   35
134.14   48
134.16   38
134.18   41
134.2    46
134.22   48
134.24   34
134.26   54
134.28   60
134.3    57
134.32   43
134.34   66
134.36   71
134.38   75
134.4    97
134.42   108
134.44   119
134.46   150
134.48   155
134.5    157
134.52   179
134.54   189
134.56   225
134.58   249
134.6    238
134.62   203
134.64   216
134.66   184
134.68   184
134.7    206
134.72   187
134.74   153
134.76   149
134.78   145
134.8    139
134.82   105
134.84   122
134.86   100
134.88   111
134.9    96
134.92   85
134.94   97
134.96   68
134.98   59
135.0    65
135.02   66
135.04   59
135.06   73
135.08   64
135.1    77
135.12   85
135.14   91
135.16   73
135.18   92
135.2    87
135.22   107
135.24   119
135.26   102
135.28   134
135.3    115
135.32   116
135.34   96
135.36   130
135.38   94
135.4    94
135.42   106
135.44   88
135.46   83
135.48   70
135.5    79
135.52   74
135.54   59
135.56   61
135.58   68
135.6    42
135.62   49
135.64   54
135.66   47
135.68   44
135.7    52
135.72   49
135.74   39
135.76   41
135.78   43
135.8    32
135.82   44
135.84   50
135.86   34
135.88   36
135.9    28
135.92   26
135.94   35
135.96   29
135.98   38
136.0    33
136.02   41
136.04   39
136.06   34
136.08   37
136.1    33
136.12   18
136.14   37
136.16   35
136.18   25
136.2    18
136.22   33
136.24   33
136.26   33
136.28   23
136.3    28
136.32   26
136.34   33
136.36   36
136.38   29
136.4    30
136.42   29
136.44   27
136.46   28
136.48   37
136.5    34
136.52   31
136.54   24
136.56   37
136.58   24
136.6    26
136.62   33
136.64   29
136.66   30
136.68   31
136.7    35
136.72   23
136.74   34
136.76   30
136.78   29
136.8    29
136.82   25
136.84   25
136.86   23
136.88   29
136.9    30
136.92   27
136.94   27
136.96   34
136.98   23
137.0    22
137.02   30
137.04   26
137.06   28
137.08   31
137.1    28
137.12   25
137.14   25
137.16   34
137.18   35
137.2    30
137.22   27
137.24   29
137.26   34
137.28   20
137.3    21
137.32   36
137.34   21
137.36   31
137.38   23
137.4    32
137.42   28
137.44   33
137.46   34
137.48   28
137.5    30
137.52   34
137.54   33
137.56   31
137.58   30
137.6    29
137.62   31
137.64   23
137.66   31
137.68   18
137.7    22
137.72   24
137.74   25
137.76   33
137.78   25
137.8    23
137.82   30
137.84   20
137.86   24
137.88   21
137.9    27
137.92   31
137.94   24
137.96   34
137.98   25
138.0    26
138.02   32
138.04   40
138.06   26
138.08   36
138.1    22
138.12   26
138.14   26
138.16   28
138.18   22
138.2    24
138.22   31
138.24   28
138.26   33
138.28   29
138.3    39
138.32   30
138.34   26
138.36   34
138.38   30
138.4    33
138.42   32
138.44   26
138.46   27
138.48   30
138.5    27
138.52   16
138.54   32
138.56   30
138.58   36
138.6    27
138.62   33
138.64   35
138.66   27
138.68   19
138.7    37
138.72   26
138.74   33
138.76   23
138.78   21
138.8    31
138.82   31
138.84   31
138.86   19
138.88   37
138.9    23
138.92   30
138.94   20
138.96   26
138.98   19
139.0    24
139.02   27
139.04   33
139.06   29
139.08   28
139.1    22
139.12   29
139.14   26
139.16   31
139.18   20
139.2    35
139.22   27
139.24   36
139.26   36
139.28   27
139.3    27
139.32   22
139.34   22
139.36   21
139.38   32
139.4    19
139.42   31
139.44   20
139.46   33
139.48   22
139.5    24
139.52   29
139.54   31
139.56   23
139.58   32
139.6    22
139.62   26
139.64   35
139.66   29
139.68   31
139.7    24
139.72   33
139.74   28
139.76   24
139.78   33
139.8    25
139.82   24
139.84   24
139.86   21
139.88   36
139.9    23
139.92   27
139.94   31
139.96   21
139.98   28
140.0    26
