20.0     77
20.02    78
20.04    68
20.06    77
20.08    66
20.1     83
20.12    85
20.14    65
20.16    53
20.18    56
20.2     68
20.22    62
20.24    68
20.26    85
20.28    50
20.3     72
20.32    82
20.34    82
20.36    70
20.38    82
20.4     75
20.42    75
20.44    70
20.46    70
20.48    63
20.5     69
20.52    71
20.54    66
20.56    69
20.58    64
20.6     66
20.62    62
20.64    65
20.66    96
20.68    70
20.7     70
20.72    63
20.74    66
20.76    77
20.78    69
20.8     66
20.82    59
20.84    70
20.86    53
20.88    66
20.9     59
20.92    80
20.94    79
20.96    86
20.98    69
21.0     74
21.02    91
21.04    70
21.06    64
21.08    65
21.1     74
21.12    74
21.14    66
21.16    66
21.18    64
21.2     56
21.22    66
21.24    63
21.26    69
21.28    71
21.3     64
21.32    74
21.34    81
21.36    67
21.38    64
21.4     61
21.42    62
21.44    52
21.46    67
21.48    54
21.5     48
21.52    58
21.54    79
21.56    66
21.58    66
21.6     75
21.62    62
21.64    72
21.66    59
21.68    57
21.7     65
21.72    62
21.74    89
21.76    67
21.78    76
21.8     42
21.82    62
21.84    57
21.86    53
21.88    60
21.9     65
21.92    61
21.94    60
21.96    83
21.98    77
22.0     64
22.02    64
22.04    50
22.06    72
22.08    68
22.1     60
22.12    81
22.14    68
22.16    78
22.18    59
22.2     82
22.22    66
22.24    71
22.26    70
22.28    63
22.3     76
22.32    67
22.34    60
22.36    65
22.38    57
22.4     77
22.42    60
22.44    69
22.46    69
22.48    81
22.5     61
22.52    60
22.54    62
22.56    55
22.58    78
22.6     62
22.62    60
22.64    55
22.66    71
22.68    62
22.7     48
22.72    60
22.74    74
22.76    74
22.78    53
22.8     45
22.82    52
22.84    56
22.86    68
22.88    68
22.9     63
22.92    48
22.94    52
22.96    99
22.98    58
23.0     62
23.02    52
23.04    45
23.06    51
23.08    59
23.1     62
23.12    55
23.14    63
23.16    67
23.18    67
23.2     67
23.22    43
23.24    59
23.26    51
23.28    61
23.3     65
23.32    43
23.34    58
23.36    53
23.38    60
23.4     53
23.42    50
23.44    49
23.46    58
23.48    58
23.5     49
23.52    63
23.54    54
23.56    52
23.58    73
23.6     52
23.62    63
23.64    59
23.66    47
23.68    51
23.7     63
23.72    45
23.74    62
23.76    63
23.78    68
23.8     47
23.82    55
23.84    53
23.86    56
23.88    63
23.9     54
23.92    55
23.94    49
23.96    51
23.98    58
24.0     53
24.02    57
24.04    56
24.06    68
24.08    54
24.1     64
24.12    53
24.14    63
24.16    58
24.18    63
24.2     43
24.22    55
24.24    45
24.26    54
24.28    54
24.3     44
24.32    46
24.34    41
24.36    78
24.38    53
24.4     43
24.42    54
24.44    50
24.46    49
24.48    52
24.5     57
24.52    43
24.54    62
24.56    42
24.58    56
24.6     69
24.62    54
24.64    52
24.66    56
24.68    59
24.7     44
24.72    65
24.74    55
24.76    56
24.78    50
24.8     39
24.82    47
24.84    54
24.86    69
24.88    46
24.9     52
24.92    49
24.94    63
24.96    63
24.98    55
25.0     60
25.02    52
25.04    61
25.06    53
25.08    53
25.1     59
25.12    47
25.14    53
25.16    59
25.18    51
25.2     56
25.22    57
25.24    48
25.26    67
25.28    51
25.3     54
25.32    64
25.34    44
25.36    69
25.38    59
25.4     62
25.42    59
25.44    50
25.46    61
25.48    71
25.5     55
25.52    61
25.54    59
25.56    66
25.58    49
25.6     54
25.62    52
25.64    53
25.66    65
25.68    45
25.7     47
25.72    53
25.74    53
25.76    45
25.78    64
25.8     48
25.82    53
25.84    42
25.86    47
25.88    46
25.9     57
25.92    49
25.94    55
25.96    48
25.98    61
26.0     50
26.02    56
26.04    48
26.06    61
26.08    57
26.1     57
26.12    47
26.14    69
26.16    54
26.18    58
26.2     74
26.22    66
26.24    56
26.26    70
26.28    67
26.3     90
26.32    98
26.34    102
26.36    133
26.38    132
26.4     203
26.42    244
26.44    326
26.46    396
26.48    553
26.5     563
26.52    553
26.54    458
26.56    366
26.58    304
26.6     199
26.62    131
26.64    103
26.66    58
26.68    53
26.7     71
26.72    43
26.74    53
26.76    55
26.78    49
26.8     51
26.82    62
26.84    48
26.86    54
26.88    43
26.9     49
26.92    44
26.94    46
26.96    42
26.98    49
27.0     49
27.02    46
27.04    36
27.06    44
27.08    53
27.1     36
27.12    57
27.14    53
27.16    43
27.18    50
27.2     48
27.22    44
27.24    24
27.26    53
27.28    49
27.3     46
27.32    59
27.34    60
27.36    52
27.38    36
27.4     52
27.42    42
27.44    53
27.46    39
27.48    47
27.5     49
27.52    48
27.54    42
27.56    48
27.58    43
27.6     60
27.62    50
27.64    58
27.66    59
27.68    36
27.7     42
27.72    52
27.74    55
27.76    45
27.78    43
27.8     42
27.82    62
27.84    43
27.86    53
27.88    38
27.9     48
27.92    51
27.94    49
27.96    30
27.98    43
28.0     44
28.02    46
28.04    44
28.06    37
28.08    59
28.1     41
28.12    45
28.14    39
28.16    52
28.18    56
28.2     54
28.22    49
28.24    41
28.26    55
28.28    39
28.3     46
28.32    58
28.34    43
28.36    60
28.38    44
28.4     38
28.42    36
28.44    42
28.46    41
28.48    45
28.5     39
28.52    56
28.54    65
28.56    41
28.58    39
28.6     66
28.62    41
28.64    56
28.66    48
28.68    41
28.7     28
28.72    51
28.74    34
28.76    39
28.78    44
28.8     41
28.82    41
28.84    41
28.86    45
28.88    53
28.9     52
28.92    33
28.94    47
28.96    41
28.98    37
29.0     42
29.02    52
29.04    52
29.06    39
29.08    35
29.1     48
29.12    43
29.14    54
29.16    51
29.18    51
29.2     35
29.22    51
29.24    50
29.26    46
29.28    39
29.3     34
29.32    36
29.34    45
29.36    48
29.38    39
29.4     40
29.42    48
29.44    39
29.46    41
29.48    41
29.5     31
29.52    28
29.54    37
29.56    40
29.58    47
29.6     58
29.62    57
29.64    50
29.66    42
29.68    36
29.7     46
29.72    40
29.74    44
29.76    32
29.78    40
29.8     41
29.82    46
29.84    38
29.86    54
29.88    54
29.9     50
29.92    51
29.94    51
29.96    51
29.98    48
30.0     53
30.02    42
30.04    52
30.06    43
30.08    51
30.1     52
30.12    58
30.14    51
30.16    39
30.18    43
30.2     42
30.22    37
30.24    31
30.26    49
30.28    48
30.3     40
30.32    55
30.34    49
30.36    38
30.38    66
30.4     44
30.42    43
30.44    44
30.46    51
30.48    54
30.5     54
30.52    51
30.54    68
30.56    62
30.58    65
30.6     62
30.62    71
30.64    108
30.66    124
30.68    173
30.7     184
30.72    207
30.74    224
30.76    198
30.78    138
30.8     156
30.82    120
30.84    107
30.86    84
30.88    74
30.9     72
30.92    53
30.94    47
30.96    45
30.98    46
31.0     43
31.02    45
31.04    39
31.06    49
31.08    34
31.1     52
31.12    60
31.14    37
31.16    42
31.18    42
31.2     48
31.22    45
31.24    55
31.26    46
31.28    56
31.3     45
31.32    57
31.34    56
31.36    50
31.38    61
31.4     57
31.42    76
31.44    67
31.46    60
31.48    63
31.5     62
31.52    58
31.54    61
31.56    53
31.58    59
31.6     47
31.62    42
31.64    44
31.66    54
31.68    57
31.7     43
31.72    37
31.74    32
31.76    43
31.78    32
31.8     38
31.82    51
31.84    43
31.86    47
31.88    50
31.9     34
31.92    32
31.94    31
31.96    39
31.98    29
32.0     41
32.02    43
32.04    52
32.06    36
32.08    41
32.1     39
32.12    49
32.14    55
32.16    46
32.18    30
32.2     38
32.22    39
32.24    55
32.26    38
32.28    34
32.3     37
32.32    45
32.34    43
32.36    45
32.38    35
32.4     40
32.42    44
32.44    37
32.46    42
32.48    42
32.5     43
32.52    40
32.54    41
32.56    44
32.58    35
32.6     50
32.62    50
32.64    28
32.66    49
32.68    45
32.7     46
32.72    41
32.74    40
32.76    46
32.78    34
32.8     40
32.82    42
32.84    33
32.86    45
32.88    33
32.9     38
32.92    50
32.94    35
32.96    51
32.98    46
33.0     41
33.02    39
33.04    45
33.06    34
33.08    50
33.1     44
33.12    41
33.14    37
33.16    40
33.18    51
33.2     50
33.22    39
33.24    27
33.26    38
33.28    46
33.3     38
33.32    46
33.34    50
33.36    40
33.38    37
33.4     43
33.42    36
33.44    44
33.46    40
33.48    54
33.5     46
33.52    32
33.54    36
33.56    45
33.58    45
33.6     45
33.62    35
33.64    36
33.66    43
33.68    38
33.7     33
33.72    42
33.74    41
33.76    42
33.78    37
33.8     39
33.82    46
33.84    38
33.86    39
33.88    45
33.9     44
33.92    34
33.94    36
33.96    55
33.98    38
34.0     37
34.02    38
34.04    36
34.06    45
34.08    60
34.1     27
34.12    50
34.14    41
34.16    41
34.18    52
34.2     44
34.22    52
34.24    57
34.26    48
34.28    45
34.3     68
34.32    47
34.34    53
34.36    64
34.38    65
34.4     70
34.42    74
34.44    65
34.46    62
34.48    54
34.5     41
34.52    58
34.54    43
34.56    46
34.58    51
34.6     36
34.62    57
34.64    58
34.66    25
34.68    41
34.7     37
34.72    45
34.74    41
34.76    43
34.78    36
34.8     33
34.82    44
34.84    50
34.86    40
34.88    50
34.9     58
34.92    45
34.94    56
34.96    42
34.98    45
35.0     54
35.02    46
35.04    48
35.06    47
35.08    44
35.1     41
35.12    52
35.14    51
35.16    45
35.18    34
35.2     38
35.22    63
35.24    52
35.26    37
35.28    44
35.3     38
35.32    37
35.34    42
35.36    30
35.38    38
35.4     42
35.42    42
35.44    25
35.46    39
35.48    43
35.5     41
35.52    44
35.54    32
35.56    47
35.58    34
35.6     50
35.62    40
35.64    33
35.66    35
35.68    43
35.7     37
35.72    39
35.74    33
35.76    31
35.78    42
35.8     37
35.82    35
35.84    33
35.86    46
35.88    45
35.9     47
35.92    35
35.94    33
35.96    38
35.98    23
36.0     31
36.02    26
36.04    40
36.06    39
36.08    40
36.1     38
36.12    32
36.14    46
36.16    42
36.18    44
36.2     39
36.22    35
36.24    36
36.26    32
36.28    42
36.3     37
36.32    41
36.34    33
36.36    42
36.38    32
36.4     35
36.42    37
36.44    40
36.46    32
36.48    41
36.5     29
36.52    39
36.54    36
36.56    46
36.58    39
36.6     42
36.62    53
36.64    42
36.66    43
36.68    39
36.7     42
36.72    47
36.74    47
36.76    31
36.78    45
36.8     57
36.82    55
36.84    49
36.86    44
36.88    37
36.9     56
36.92    46
36.94    48
36.96    46
36.98    34
37.0     43
37.02    29
37.04    41
37.06    45
37.08    45
37.1     50
37.12    33
37.14    29
37.16    37
37.18    33
37.2     40
37.22    42
37.24    41
37.26    35
37.28    39
37.3     37
37.32    46
37.34    49
37.36    36
37.38    37
37.4     41
37.42    37
37.44    34
37.46    33
37.48    50
37.5     43
37.52    33
37.54    38
37.56    48
37.58    40
37.6     52
37.62    49
37.64    46
37.66    48
37.68    57
37.7     45
37.72    42
37.74    35
37.76    34
37.78    33
37.8     49
37.82    37
37.84    42
37.86    55
37.88    37
37.9     44
37.92    25
37.94    33
37.96    46
37.98    45
38.0     50
38.02    42
38.04    40
38.06    33
38.08    28
38.1     33
38.12    42
38.14    31
38.16    40
38.18    29
38.2     35
38.22    38
38.24    56
38.26    34
38.28    42
38.3     46
38.32    43
38.34    34
38.36    47
38.38    37
38.4     44
38.42    37
38.44    45
38.46    50
38.48    40
38.5     26
38.52    43
38.54    54
38.56    46
38.58    31
38.6     57
38.62    52
38.64    58
38.66    63
38.68    74
38.7     64
38.72    77
38.74    69
38.76    79
38.78    71
38.8     95
38.82    91
38.84    82
38.86    90
38.88    91
38.9     78
38.92    73
38.94    85
38.96    75
38.98    66
39.0     68
39.02    55
39.04    60
39.06    50
39.08    53
39.1     50
39.12    39
39.14    38
39.16    43
39.18    36
39.2     45
39.22    45
39.24    35
39.26    38
39.28    46
39.3     40
39.32    39
39.34    44
39.36    37
39.38    37
39.4     34
39.42    35
39.44    38
39.46    40
39.48    27
39.5     43
39.52    27
39.54    40
39.56    30
39.58    36
39.6     34
39.62    23
39.64    36
39.66    38
39.68    27
39.7     32
39.72    38
39.74    39
39.76    49
39.78    33
39.8     42
39.82    31
39.84    33
39.86    46
39.88    26
39.9     36
39.92    42
39.94    50
39.96    36
39.98    34
40.0     38
40.02    52
40.04    42
40.06    50
40.08    52
40.1     50
40.12    58
40.14    52
40.16    36
40.18    56
40.2     50
40.22    51
40.24    53
40.26    54
40.28    51
40.3     39
40.32    41
40.34    58
40.36    55
40.38    43
40.4     41
40.42    49
40.44    38
40.46    42
40.48    28
40.5     34
40.52    46
40.54    43
40.56    40
40.58    44
40.6     50
40.62    40
40.64    33
40.66    31
40.68    40
40.7     24
40.72    29
40.74    44
40.76    43
40.78    36
40.8     37
40.82    43
40.84    29
40.86    46
40.88    43
40.9     37
40.92    38
40.94    54
40.96    66
40.98    50
41.0     45
41.02    53
41.04    52
41.06    58
41.08    66
41.1     78
41.12    81
41.14    89
41.16    92
41.18    109
41.2     112
41.22    111
41.24    129
41.26    118
41.28    122
41.3     144
41.32    145
41.34    126
41.36    118
41.38    113
41.4     92
41.42    89
41.44    105
41.46    83
41.48    88
41.5     78
41.52    79
41.54    61
41.56    48
41.58    49
41.6     62
41.62    41
41.64    50
41.66    45
41.68    48
41.7     43
41.72    39
41.74    49
41.76    33
41.78    42
41.8     40
41.82    37
41.84    30
41.86    38
41.88    36
41.9     39
41.92    39
41.94    46
41.96    30
41.98    38
42.0     39
42.02    38
42.04    39
42.06    31
42.08    31
42.1     33
42.12    29
42.14    37
42.16    38
42.18    25
42.2     35
42.22    28
42.24    35
42.26    41
42.28    35
42.3     29
42.32    38
42.34    27
42.36    34
42.38    30
42.4     40
42.42    34
42.44    44
42.46    43
42.48    44
42.5     36
42.52    22
42.54    43
42.56    39
42.58    45
42.6     38
42.62    42
42.64    33
42.66    42
42.68    34
42.7     46
42.72    38
42.74    36
42.76    30
42.78    39
42.8     47
42.82    41
42.84    45
42.86    47
42.88    39
42.9     53
42.92    56
42.94    50
42.96    46
42.98    39
43.0     47
43.02    47
43.04    33
43.06    39
43.08    46
43.1     51
43.12    61
43.14    77
43.16    57
43.18    55
43.2     65
43.22    62
43.24    65
43.26    43
43.28    80
43.3     67
43.32    63
43.34    74
43.36    67
43.38    76
43.4     56
43.42    77
43.44    74
43.46    74
43.48    85
43.5     97
43.52    88
43.54    107
43.56    100
43.58    130
43.6     136
43.62    124
43.64    130
43.66    119
43.68    150
43.7     151
43.72    151
43.74    166
43.76    200
43.78    173
43.8     213
43.82    237
43.84    275
43.86    312
43.88    335
43.9     437
43.92    500
43.94    688
43.96    1035
43.98    1533
44.0     2308
44.02    3475
44.04    5015
44.06    6271
44.08    7164
44.1     6977
44.12    6132
44.14    5012
44.16    4199
44.18    3961
44.2     3653
44.22    3283
44.24    2663
44.26    1867
44.28    1174
44.3     711
44.32    452
44.34    337
44.36    296
44.38    205
44.4     137
44.42    115
44.44    106
44.46    110
44.48    93
44.5     99
44.52    65
44.54    73
44.56    74
44.58    52
44.6     55
44.62    61
44.64    47
44.66    50
44.68    62
44.7     33
44.72    36
44.74    39
44.76    44
44.78    45
44.8     42
44.82    37
44.84    44
44.86    57
44.88    52
44.9     37
44.92    57
44.94    44
44.96    41
44.98    47
45.0     64
45.02    55
45.04    49
45.06    36
45.08    57
45.1     64
45.12    64
45.14    56
45.16    52
45.18    52
45.2     51
45.22    71
45.24    59
45.26    54
45.28    49
45.3     57
45.32    51
45.34    32
45.36    44
45.38    41
45.4     47
45.42    47
45.44    52
45.46    37
45.48    41
45.5     50
45.52    49
45.54    26
45.56    20
45.58    36
45.6     36
45.62    28
45.64    37
45.66    41
45.68    32
45.7     35
45.72    28
45.74    30
45.76    35
45.78    28
45.8     35
45.82    31
45.84    34
45.86    36
45.88    23
45.9     36
45.92    34
45.94    26
45.96    36
45.98    26
46.0     36
46.02    37
46.04    30
46.06    21
46.08    33
46.1     36
46.12    29
46.14    25
46.16    26
46.18    34
46.2     26
46.22    45
46.24    43
46.26    29
46.28    36
46.3     39
46.32    30
46.34    37
46.36    30
46.38    31
46.4     38
46.42    30
46.44    39
46.46    23
46.48    33
46.5     32
46.52    35
46.54    34
46.56    40
46.58    34
46.6     36
46.62    28
46.64    34
46.66    38
46.68    32
46.7     31
46.72    36
46.74    29
46.76    40
46.78    32
46.8     29
46.82    23
46.84    33
46.86    30
46.88    30
46.9     27
46.92    27
46.94    30
46.96    35
46.98    24
47.0     28
47.02    34
47.04    30
47.06    25
47.08    34
47.1     26
47.12    44
47.14    30
47.16    38
47.18    35
47.2     37
47.22    28
47.24    33
47.26    35
47.28    34
47.3     30
47.32    28
47.34    26
47.36    35
47.38    32
47.4     32
47.42    39
47.44    34
47.46    33
47.48    31
47.5     36
47.52    31
47.54    26
47.56    29
47.58    30
47.6     21
47.62    27
47.64    27
47.66    30
47.68    23
47.7     32
47.72    34
47.74    30
47.76    30
47.78    32
47.8     34
47.82    37
47.84    36
47.86    23
47.88    25
47.9     46
47.92    32
47.94    25
47.96    34
47.98    28
48.0     29
48.02    33
48.04    32
48.06    29
48.08    42
48.1     26
48.12    41
48.14    43
48.16    26
48.18    31
48.2     25
48.22    28
48.24    24
48.26    21
48.28    33
48.3     35
48.32    31
48.34    28
48.36    36
48.38    27
48.4     30
48.42    31
48.44    36
48.46    28
48.48    34
48.5     41
48.52    35
48.54    26
48.56    34
48.58    28
48.6     32
48.62    28
48.64    21
48.66    30
48.68    32
48.7     30
48.72    37
48.74    30
48.76    23
48.78    26
48.8     30
48.82    24
48.84    32
48.86    31
48.88    20
48.9     31
48.92    23
48.94    28
48.96    23
48.98    41
49.0     32
49.02    37
49.04    33
49.06    28
49.08    27
49.1     36
49.12    29
49.14    39
49.16    31
49.18    29
49.2     31
49.22    30
49.24    24
49.26    33
49.28    33
49.3     41
49.32    33
49.34    29
49.36    32
49.38    37
49.4     30
49.42    27
49.44    21
49.46    33
49.48    29
49.5     27
49.52    32
49.54    27
49.56    26
49.58    25
49.6     26
49.62    33
49.64    20
49.66    22
49.68    28
49.7     29
49.72    24
49.74    37
49.76    25
49.78    34
49.8     31
49.82    20
49.84    41
49.86    30
49.88    38
49.9     30
49.92    38
49.94    25
49.96    23
49.98    34
50.0     17
50.02    22
50.04    33
50.06    31
50.08    37
50.1     27
50.12    28
50.14    31
50.16    33
50.18    32
50.2     35
50.22    38
50.24    31
50.26    34
50.28    30
50.3     31
50.32    26
50.34    28
50.36    29
50.38    40
50.4     18
50.42    35
50.44    37
50.46    33
50.48    25
50.5     25
50.52    28
50.54    19
50.56    39
50.58    24
50.6     27
50.62    27
50.64    29
50.66    28
50.68    21
50.7     25
50.72    37
50.74    30
50.76    35
50.78    26
50.8     25
50.82    34
50.84    30
50.86    34
50.88    41
50.9     35
50.92    32
50.94    44
50.96    33
50.98    27
51.0     47
51.02    29
51.04    40
51.06    26
51.08    28
51.1     36
51.12    37
51.14    35
51.16    41
51.18    29
51.2     31
51.22    31
51.24    38
51.26    26
51.28    27
51.3     37
51.32    33
51.34    24
51.36    21
51.38    27
51.4     29
51.42    25
51.44    29
51.46    30
51.48    40
51.5     33
51.52    32
51.54    30
51.56    35
51.58    37
51.6     38
51.62    31
51.64    19
51.66    35
51.68    23
51.7     36
51.72    36
51.74    33
51.76    24
51.78    31
51.8     32
51.82    28
51.84    35
51.86    41
51.88    40
51.9     33
51.92    38
51.94    46
51.96    27
51.98    47
52.0     36
52.02    36
52.04    49
52.06    47
52.08    41
52.1     50
52.12    73
52.14    83
52.16    103
52.18    125
52.2     210
52.22    245
52.24    283
52.26    256
52.28    210
52.3     199
52.32    133
52.34    133
52.36    161
52.38    146
52.4     141
52.42    93
52.44    85
52.46    72
52.48    66
52.5     40
52.52    36
52.54    33
52.56    37
52.58    36
52.6     25
52.62    28
52.64    38
52.66    42
52.68    38
52.7     23
52.72    34
52.74    27
52.76    28
52.78    37
52.8     34
52.82    28
52.84    23
52.86    35
52.88    20
52.9     35
52.92    31
52.94    32
52.96    28
52.98    29
53.0     23
53.02    31
53.04    30
53.06    23
53.08    30
53.1     28
53.12    28
53.14    28
53.16    35
53.18    28
53.2     20
53.22    34
53.24    27
53.26    28
53.28    26
53.3     42
53.32    32
53.34    34
53.36    41
53.38    26
53.4     26
53.42    28
53.44    26
53.46    38
53.48    25
53.5     34
53.52    30
53.54    26
53.56    23
53.58    36
53.6     32
53.62    29
53.64    23
53.66    25
53.68    27
53.7     32
53.72    37
53.74    26
53.76    41
53.78    30
53.8     29
53.82    28
53.84    29
53.86    29
53.88    28
53.9     36
53.92    38
53.94    26
53.96    32
53.98    30
54.0     21
54.02    31
54.04    23
54.06    31
54.08    33
54.1     25
54.12    33
54.14    26
54.16    27
54.18    26
54.2     33
54.22    31
54.24    32
54.26    29
54.28    27
54.3     24
54.32    28
54.34    27
54.36    26
54.38    32
54.4     32
54.42    21
54.44    34
54.46    34
54.48    32
54.5     28
54.52    24
54.54    24
54.56    26
54.58    30
54.6     34
54.62    26
54.64    29
54.66    40
54.68    34
54.7     31
54.72    50
54.74    75
54.76    53
54.78    64
54.8     58
54.82    44
54.84    41
54.86    53
54.88    43
54.9     49
54.92    38
54.94    41
54.96    42
54.98    33
55.0     33
55.02    36
55.04    39
55.06    40
55.08    33
55.1     32
55.12    27
55.14    24
55.16    34
55.18    29
55.2     28
55.22    32
55.24    20
55.26    24
55.28    20
55.3     32
55.32    22
55.34    27
55.36    24
55.38    31
55.4     18
55.42    28
55.44    20
55.46    26
55.48    27
55.5     29
55.52    27
55.54    33
55.56    26
55.58    35
55.6     36
55.62    38
55.64    40
55.66    30
55.68    22
55.7     36
55.72    34
55.74    26
55.76    36
55.78    29
55.8     23
55.82    28
55.84    29
55.86    38
55.88    26
55.9     42
55.92    22
55.94    28
55.96    28
55.98    24
56.0     40
56.02    37
56.04    30
56.06    19
56.08    29
56.1     27
56.12    27
56.14    26
56.16    30
56.18    21
56.2     35
56.22    26
56.24    26
56.26    35
56.28    24
56.3     24
56.32    28
56.34    27
56.36    30
56.38    31
56.4     26
56.42    38
56.44    28
56.46    34
56.48    26
56.5     22
56.52    22
56.54    27
56.56    29
56.58    27
56.6     25
56.62    24
56.64    26
56.66    24
56.68    40
56.7     39
56.72    19
56.74    29
56.76    26
56.78    37
56.8     28
56.82    31
56.84    26
56.86    34
56.88    25
56.9     21
56.92    26
56.94    30
56.96    21
56.98    38
57.0     24
57.02    25
57.04    29
57.06    28
57.08    29
57.1     44
57.12    27
57.14    30
57.16    35
57.18    27
57.2     40
57.22    39
57.24    40
57.26    32
57.28    32
57.3     36
57.32    40
57.34    46
57.36    30
57.38    29
57.4     30
57.42    41
57.44    39
57.46    33
57.48    29
57.5     31
57.52    27
57.54    34
57.56    36
57.58    39
57.6     25
57.62    36
57.64    27
57.66    36
57.68    33
57.7     31
57.72    34
57.74    29
57.76    35
57.78    41
57.8     22
57.82    23
57.84    43
57.86    41
57.88    41
57.9     29
57.92    47
57.94    30
57.96    32
57.98    36
58.0     39
58.02    32
58.04    37
58.06    31
58.08    32
58.1     38
58.12    39
58.14    37
58.16    39
58.18    42
58.2     37
58.22    37
58.24    31
58.26    38
58.28    31
58.3     32
58.32    31
58.34    31
58.36    44
58.38    24
58.4     40
58.42    35
58.44    24
58.46    33
58.48    31
58.5     33
58.52    29
58.54    26
58.56    38
58.58    39
58.6     30
58.62    26
58.64    37
58.66    25
58.68    32
58.7     32
58.72    27
58.74    37
58.76    32
58.78    19
58.8     39
58.82    23
58.84    21
58.86    32
58.88    20
58.9     22
58.92    26
58.94    27
58.96    29
58.98    32
59.0     40
59.02    40
59.04    25
59.06    45
59.08    31
59.1     38
59.12    35
59.14    21
59.16    47
59.18    23
59.2     23
59.22    30
59.24    30
59.26    29
59.28    25
59.3     31
59.32    37
59.34    29
59.36    20
59.38    40
59.4     25
59.42    21
59.44    30
59.46    30
59.48    34
59.5     37
59.52    27
59.54    32
59.56    32
59.58    33
59.6     33
59.62    29
59.64    28
59.66    32
59.68    35
59.7     27
59.72    29
59.74    22
59.76    29
59.78    27
59.8     29
59.82    33
59.84    28
59.86    24
59.88    31
59.9     23
59.92    34
59.94    28
59.96    23
59.98    27
60.0     29
60.02    35
60.04    27
60.06    24
60.08    34
60.1     25
60.12    28
60.14    20
60.16    29
60.18    21
60.2     24
60.22    23
60.24    36
60.26    31
60.28    24
60.3     22
60.32    36
60.34    26
60.36    26
60.38    25
60.4     21
60.42    29
60.44    27
60.46    32
60.48    35
60.5     30
60.52    28
60.54    19
60.56    29
60.58    24
60.6     28
60.62    24
60.64    38
60.66    31
60.68    26
60.7     22
60.72    32
60.74    27
60.76    29
60.78    31
60.8     24
60.82    26
60.84    37
60.86    29
60.88    30
60.9     22
60.92    29
60.94    26
60.96    21
60.98    29
61.0     32
61.02    29
61.04    31
61.06    33
61.08    26
61.1     27
61.12    31
61.14    30
61.16    26
61.18    30
61.2     25
61.22    30
61.24    34
61.26    31
61.28    24
61.3     27
61.32    30
61.34    23
61.36    21
61.38    30
61.4     21
61.42    26
61.44    24
61.46    39
61.48    19
61.5     36
61.52    32
61.54    23
61.56    26
61.58    18
61.6     36
61.62    18
61.64    26
61.66    31
61.68    35
61.7     30
61.72    35
61.74    33
61.76    22
61.78    32
61.8     23
61.82    28
61.84    35
61.86    31
61.88    28
61.9     29
61.92    29
61.94    39
61.96    31
61.98    22
62.0     44
62.02    24
62.04    35
62.06    33
62.08    34
62.1     35
62.12    30
62.14    20
62.16    39
62.18    23
62.2     44
62.22    24
62.24    40
62.26    32
62.28    34
62.3     26
62.32    21
62.34    32
62.36    34
62.38    29
62.4     24
62.42    28
62.44    33
62.46    33
62.48    35
62.5     29
62.52    37
62.54    40
62.56    34
62.58    26
62.6     43
62.62    40
62.64    34
62.66    23
62.68    27
62.7     41
62.72    30
62.74    38
62.76    44
62.78    43
62.8     38
62.82    36
62.84    41
62.86    40
62.88    33
62.9     40
62.92    34
62.94    26
62.96    32
62.98    33
63.0     41
63.02    35
63.04    37
63.06    46
63.08    35
63.1     28
63.12    32
63.14    41
63.16    38
63.18    37
63.2     34
63.22    25
63.24    38
63.26    38
63.28    40
63.3     29
63.32    39
63.34    41
63.36    29
63.38    36
63.4     26
63.42    38
63.44    29
63.46    42
63.48    40
63.5     43
63.52    27
63.54    47
63.56    21
63.58    39
63.6     37
63.62    42
63.64    52
63.66    37
63.68    34
63.7     46
63.72    33
63.74    47
63.76    56
63.78    65
63.8     60
63.82    50
63.84    67
63.86    63
63.88    45
63.9     75
63.92    80
63.94    66
63.96    75
63.98    88
64.0     95
64.02    123
64.04    144
64.06    208
64.08    253
64.1     371
64.12    530
64.14    718
64.16    870
64.18    1018
64.2     1003
64.22    990
64.24    861
64.26    721
64.28    627
64.3     503
64.32    552
64.34    565
64.36    527
64.38    502
64.4     542
64.42    385
64.44    315
64.46    271
64.48    222
64.5     154
64.52    100
64.54    91
64.56    89
64.58    70
64.6     57
64.62    50
64.64    46
64.66    46
64.68    40
64.7     51
64.72    45
64.74    26
64.76    47
64.78    33
64.8     39
64.82    36
64.84    34
64.86    39
64.88    27
64.9     34
64.92    44
64.94    35
64.96    29
64.98    34
65.0     45
65.02    28
65.04    20
65.06    27
65.08    25
65.1     31
65.12    27
65.14    29
65.16    46
65.18    33
65.2     39
65.22    23
65.24    26
65.26    22
65.28    30
65.3     35
65.32    35
65.34    27
65.36    45
65.38    20
65.4     27
65.42    32
65.44    36
65.46    28
65.48    26
65.5     32
65.52    28
65.54    34
65.56    28
65.58    23
65.6     28
65.62    25
65.64    32
65.66    25
65.68    28
65.7     45
65.72    23
65.74    24
65.76    34
65.78    29
65.8     28
65.82    41
65.84    27
65.86    29
65.88    37
65.9     33
65.92    30
65.94    32
65.96    35
65.98    28
66.0     32
66.02    30
66.04    37
66.06    28
66.08    25
66.1     34
66.12    26
66.14    29
66.16    25
66.18    32
66.2     30
66.22    31
66.24    32
66.26    37
66.28    28
66.3     30
66.32    28
66.34    27
66.36    31
66.38    35
66.4     36
66.42    28
66.44    30
66.46    32
66.48    27
66.5     37
66.52    42
66.54    38
66.56    35
66.58    29
66.6     36
66.62    34
66.64    33
66.66    26
66.68    29
66.7     22
66.72    28
66.74    32
66.76    31
66.78    29
66.8     35
66.82    29
66.84    33
66.86    27
66.88    47
66.9     37
66.92    30
66.94    24
66.96    22
66.98    29
67.0     25
67.02    27
67.04    29
67.06    26
67.08    35
67.1     31
67.12    26
67.14    22
67.16    42
67.18    30
67.2     25
67.22    37
67.24    29
67.26    27
67.28    35
67.3     28
67.32    41
67.34    29
67.36    33
67.38    25
67.4     44
67.42    28
67.44    41
67.46    39
67.48    32
67.5     30
67.52    37
67.54    29
67.56    21
67.58    46
67.6     30
67.62    34
67.64    34
67.66    40
67.68    42
67.7     26
67.72    32
67.74    35
67.76    45
67.78    29
67.8     40
67.82    44
67.84    35
67.86    39
67.88    43
67.9     32
67.92    33
67.94    27
67.96    35
67.98    28
68.0     44
68.02    29
68.04    37
68.06    38
68.08    32
68.1     39
68.12    36
68.14    38
68.16    42
68.18    35
68.2     22
68.22    26
68.24    26
68.26    29
68.28    32
68.3     25
68.32    47
68.34    36
68.36    42
68.38    30
68.4     32
68.42    26
68.44    34
68.46    44
68.48    32
68.5     34
68.52    28
68.54    25
68.56    29
68.58    36
68.6     32
68.62    34
68.64    39
68.66    30
68.68    26
68.7     28
68.72    30
68.74    36
68.76    31
68.78    43
68.8     23
68.82    33
68.84    34
68.86    23
68.88    30
68.9     27
68.92    23
68.94    33
68.96    30
68.98    31
69.0     35
69.02    29
69.04    25
69.06    21
69.08    39
69.1     28
69.12    26
69.14    33
69.16    32
69.18    21
69.2     29
69.22    30
69.24    32
69.26    26
69.28    29
69.3     21
69.32    35
69.34    38
69.36    28
69.38    30
69.4     29
69.42    23
69.44    29
69.46    27
69.48    26
69.5     32
69.52    38
69.54    35
69.56    35
69.58    27
69.6     31
69.62    28
69.64    26
69.66    23
69.68    21
69.7     26
69.72    29
69.74    29
69.76    38
69.78    38
69.8     26
69.82    30
69.84    27
69.86    29
69.88    31
69.9     34
69.92    35
69.94    36
69.96    27
69.98    37
70.0     40
70.02    37
70.04    36
70.06    32
70.08    32
70.1     36
70.12    47
70.14    42
70.16    40
70.18    50
70.2     41
70.22    38
70.24    50
70.26    46
70.28    54
70.3     47
70.32    58
70.34    53
70.36    49
70.38    53
70.4     60
70.42    47
70.44    58
70.46    61
70.48    61
70.5     52
70.52    59
70.54    67
70.56    54
70.58    52
70.6     56
70.62    51
70.64    60
70.66    55
70.68    56
70.7     78
70.72    83
70.74    96
70.76    109
70.78    123
70.8     126
70.82    104
70.84    92
70.86    86
70.88    76
70.9     75
70.92    60
70.94    81
70.96    64
70.98    64
71.0     68
71.02    58
71.04    73
71.06    55
71.08    57
71.1     42
71.12    37
71.14    33
71.16    34
71.18    32
71.2     34
71.22    32
71.24    43
71.26    44
71.28    40
71.3     28
71.32    31
71.34    31
71.36    35
71.38    27
71.4     38
71.42    35
71.44    33
71.46    34
71.48    23
71.5     31
71.52    35
71.54    32
71.56    36
71.58    26
71.6     39
71.62    28
71.64    31
71.66    27
71.68    28
71.7     31
71.72    31
71.74    36
71.76    30
71.78    23
71.8     29
71.82    38
71.84    24
71.86    32
71.88    34
71.9     31
71.92    25
71.94    31
71.96    27
71.98    29
72.0     24
72.02    29
72.04    35
72.06    23
72.08    38
72.1     31
72.12    29
72.14    28
72.16    28
72.18    32
72.2     30
72.22    30
72.24    34
72.26    34
72.28    31
72.3     38
72.32    34
72.34    34
72.36    35
72.38    33
72.4     26
72.42    32
72.44    19
72.46    33
72.48    29
72.5     32
72.52    33
72.54    35
72.56    35
72.58    36
72.6     39
72.62    32
72.64    31
72.66    46
72.68    30
72.7     22
72.72    25
72.74    21
72.76    32
72.78    32
72.8     39
72.82    34
72.84    44
72.86    42
72.88    48
72.9     52
72.92    48
72.94    56
72.96    50
72.98    47
73.0     45
73.02    41
73.04    39
73.06    41
73.08    38
73.1     42
73.12    41
73.14    41
73.16    47
73.18    37
73.2     36
73.22    31
73.24    22
73.26    35
73.28    30
73.3     29
73.32    25
73.34    18
73.36    34
73.38    28
73.4     24
73.42    29
73.44    22
73.46    35
73.48    32
73.5     37
73.52    28
73.54    31
73.56    31
73.58    31
73.6     33
73.62    35
73.64    32
73.66    26
73.68    32
73.7     32
73.72    34
73.74    28
73.76    33
73.78    30
73.8     22
73.82    33
73.84    29
73.86    23
73.88    21
73.9     30
73.92    23
73.94    28
73.96    30
73.98    29
74.0     37
74.02    27
74.04    22
74.06    33
74.08    28
74.1     28
74.12    31
74.14    35
74.16    40
74.18    25
74.2     35
74.22    23
74.24    27
74.26    25
74.28    34
74.3     25
74.32    35
74.34    31
74.36    26
74.38    31
74.4     31
74.42    28
74.44    30
74.46    34
74.48    24
74.5     34
74.52    23
74.54    21
74.56    36
74.58    25
74.6     35
74.62    25
74.64    32
74.66    36
74.68    22
74.7     24
74.72    33
74.74    35
74.76    35
74.78    39
74.8     27
74.82    34
74.84    24
74.86    28
74.88    26
74.9     30
74.92    37
74.94    34
74.96    37
74.98    27
75.0     30
75.02    32
75.04    32
75.06    33
75.08    27
75.1     25
75.12    27
75.14    39
75.16    40
75.18    39
75.2     30
75.22    25
75.24    32
75.26    28
75.28    43
75.3     32
75.32    43
75.34    23
75.36    31
75.38    30
75.4     35
75.42    24
75.44    32
75.46    23
75.48    21
75.5     37
75.52    41
75.54    32
75.56    34
75.58    25
75.6     37
75.62    30
75.64    31
75.66    27
75.68    22
75.7     24
75.72    22
75.74    25
75.76    29
75.78    33
75.8     39
75.82    22
75.84    27
75.86    26
75.88    33
75.9     25
75.92    28
75.94    24
75.96    34
75.98    30
76.0     30
76.02    25
76.04    24
76.06    34
76.08    26
76.1     24
76.12    30
76.14    20
76.16    35
76.18    29
76.2     23
76.22    19
76.24    32
76.26    33
76.28    29
76.3     29
76.32    25
76.34    33
76.36    24
76.38    20
76.4     31
76.42    33
76.44    21
76.46    26
76.48    29
76.5     31
76.52    33
76.54    36
76.56    25
76.58    30
76.6     29
76.62    24
76.64    27
76.66    31
76.68    28
76.7     32
76.72    38
76.74    30
76.76    34
76.78    28
76.8     27
76.82    32
76.84    31
76.86    32
76.88    33
76.9     31
76.92    29
76.94    33
76.96    27
76.98    34
77.0     36
77.02    38
77.04    20
77.06    25
77.08    34
77.1     34
77.12    19
77.14    35
77.16    31
77.18    30
77.2     31
77.22    27
77.24    27
77.26    27
77.28    28
77.3     20
77.32    32
77.34    33
77.36    30
77.38    22
77.4     31
77.42    22
77.44    26
77.46    30
77.48    25
77.5     29
77.52    34
77.54    27
77.56    43
77.58    28
77.6     35
77.62    29
77.64    18
77.66    37
77.68    27
77.7     19
77.72    26
77.74    33
77.76    32
77.78    32
77.8     26
77.82    35
77.84    30
77.86    27
77.88    23
77.9     25
77.92    35
77.94    37
77.96    32
77.98    31
78.0     49
78.02    23
78.04    29
78.06    30
78.08    28
78.1     26
78.12    29
78.14    35
78.16    26
78.18    18
78.2     33
78.22    20
78.24    29
78.26    27
78.28    28
78.3     34
78.32    32
78.34    34
78.36    23
78.38    28
78.4     32
78.42    32
78.44    28
78.46    23
78.48    26
78.5     28
78.52    32
78.54    31
78.56    23
78.58    33
78.6     35
78.62    32
78.64    29
78.66    31
78.68    36
78.7     34
78.72    29
78.74    26
78.76    32
78.78    37
78.8     29
78.82    21
78.84    31
78.86    21
78.88    30
78.9     36
78.92    35
78.94    31
78.96    35
78.98    34
79.0     40
79.02    23
79.04    31
79.06    29
79.08    30
79.1     30
79.12    29
79.14    33
79.16    27
79.18    31
79.2     30
79.22    36
79.24    42
79.26    34
79.28    27
79.3     32
79.32    26
79.34    25
79.36    34
79.38    31
79.4     30
79.42    25
79.44    34
79.46    23
79.48    26
79.5     26
79.52    32
79.54    30
79.56    33
79.58    27
79.6     23
79.62    30
79.64    33
79.66    24
79.68    38
79.7     31
79.72    37
79.74    34
79.76    26
79.78    30
79.8     35
79.82    41
79.84    36
79.86    32
79.88    33
79.9     36
79.92    34
79.94    37
79.96    30
79.98    23
80.0     20
80.02    42
80.04    31
80.06    33
80.08    36
80.1     33
80.12    41
80.14    44
80.16    34
80.18    37
80.2     43
80.22    28
80.24    30
80.26    36
80.28    34
80.3     39
80.32    42
80.34    38
80.36    43
80.38    34
80.4     39
80.42    39
80.44    36
80.46    32
80.48    40
80.5     38
80.52    27
80.54    33
80.56    42
80.58    32
80.6     41
80.62    36
80.64    47
80.66    46
80.68    56
80.7     31
80.72    53
80.74    62
80.76    68
80.78    49
80.8     88
80.82    64
80.84    75
80.86    74
80.88    79
80.9     89
80.92    76
80.94    99
80.96    95
80.98    85
81.0     96
81.02    100
81.04    155
81.06    142
81.08    171
81.1     255
81.12    287
81.14    396
81.16    564
81.18    807
81.2     1096
81.22    1381
81.24    1566
81.26    1706
81.28    1627
81.3     1476
81.32    1289
81.34    1053
81.36    922
81.38    757
81.4     701
81.42    646
81.44    697
81.46    707
81.48    751
81.5     773
81.52    798
81.54    695
81.56    653
81.58    514
81.6     481
81.62    366
81.64    310
81.66    252
81.68    177
81.7     156
81.72    120
81.74    91
81.76    87
81.78    78
81.8     67
81.82    65
81.84    51
81.86    56
81.88    48
81.9     46
81.92    43
81.93    49
81.96    39
81.98    31
82.0     25
82.02    40
82.04    38
82.06    38
82.08    36
82.1     32
82.12    48
82.14    29
82.16    22
82.18    29
82.2     39
82.22    41
82.24    35
82.26    23
82.28    29
82.3     30
82.32    34
82.34    29
82.36    24
82.38    36
82.4     32
82.42    35
82.43    37
82.46    43
82.48    26
82.5     45
82.52    24
82.54    33
82.56    39
82.58    25
82.6     36
82.62    21
82.64    36
82.66    28
82.68    23
82.7     24
82.72    29
82.74    24
82.76    19
82.78    30
82.8     26
82.82    30
82.84    23
82.86    33
82.88    23
82.9     26
82.92    34
82.93    30
82.96    28
82.98    32
83.0     27
83.02    29
83.04    24
83.06    33
83.08    37
83.1     39
83.12    22
83.14    22
83.16    30
83.18    29
83.2     20
83.22    29
83.24    41
83.26    28
83.28    27
83.3     29
83.32    30
83.34    36
83.36    31
83.38    35
83.4     28
83.42    24
83.43    35
83.46    30
83.48    31
83.5     19
83.52    27
83.54    31
83.56    25
83.58    28
83.6     34
83.62    25
83.64    30
83.66    23
83.68    35
83.7     23
83.72    20
83.74    22
83.76    35
83.78    29
83.8     28
83.82    40
83.84    22
83.86    29
83.88    32
83.9     27
83.92    24
83.93    30
83.96    33
83.98    25
84.0     27
84.02    23
84.04    26
84.06    29
84.08    32
84.1     27
84.12    20
84.14    28
84.16    29
84.18    27
84.2     35
84.22    37
84.24    35
84.26    28
84.28    32
84.3     20
84.32    33
84.34    28
84.36    33
84.38    36
84.4     36
84.42    38
84.43    33
84.46    30
84.48    29
84.5     35
84.52    18
84.54    20
84.56    28
84.58    31
84.6     28
84.62    30
84.64    24
84.66    22
84.68    34
84.7     34
84.72    29
84.74    36
84.76    35
84.78    42
84.8     23
84.82    31
84.84    29
84.86    27
84.88    33
84.9     39
84.92    34
84.93    32
84.96    38
84.98    38
85.0     41
85.02    38
85.04    36
85.06    29
85.08    39
85.1     34
85.12    37
85.14    40
85.16    39
85.18    34
85.2     37
85.22    34
85.24    41
85.26    30
85.28    30
85.3     24
85.32    34
85.34    42
85.36    38
85.38    45
85.4     37
85.42    31
85.43    33
85.46    22
85.48    32
85.5     29
85.52    33
85.54    42
85.56    32
85.58    29
85.6     29
85.62    22
85.64    40
85.66    33
85.68    32
85.7     26
85.72    24
85.74    35
85.76    28
85.78    25
85.8     33
85.82    36
85.84    39
85.86    25
85.88    22
85.9     36
85.92    22
85.93    25
85.96    22
85.98    29
86.0     27
86.02    31
86.04    21
86.06    34
86.08    21
86.1     23
86.12    28
86.14    36
86.16    37
86.18    43
86.2     17
86.22    24
86.24    29
86.26    27
86.28    30
86.3     35
86.32    30
86.34    31
86.36    27
86.38    25
86.4     26
86.42    24
86.43    36
86.46    34
86.48    26
86.5     24
86.52    38
86.54    31
86.56    29
86.58    31
86.6     35
86.62    32
86.64    34
86.66    33
86.68    34
86.7     32
86.72    26
86.74    37
86.76    39
86.78    24
86.8     35
86.82    29
86.84    31
86.86    20
86.88    31
86.9     29
86.92    31
86.93    42
86.96    31
86.98    26
87.0     24
87.02    28
87.04    29
87.06    29
87.08    31
87.1     39
87.12    44
87.14    38
87.16    24
87.18    45
87.2     34
87.22    43
87.24    47
87.26    42
87.28    47
87.3     43
87.32    69
87.34    64
87.36    84
87.38    91
87.4     80
87.42    69
87.43    58
87.46    46
87.48    56
87.5     46
87.52    37
87.54    47
87.56    58
87.58    45
87.6     39
87.62    52
87.64    50
87.66    51
87.68    51
87.7     55
87.72    35
87.74    50
87.76    48
87.78    32
87.8     28
87.82    40
87.84    33
87.86    34
87.88    32
87.9     28
87.92    34
87.93    33
87.96    33
87.98    18
88.0     28
88.02    27
88.04    32
88.06    33
88.08    29
88.1     24
88.12    35
88.14    25
88.16    28
88.18    29
88.2     31
88.22    32
88.24    32
88.26    38
88.28    25
88.3     42
88.32    37
88.34    34
88.36    21
88.38    31
88.4     23
88.42    22
88.43    28
88.46    35
88.48    28
88.5     22
88.52    17
88.54    32
88.56    46
88.58    29
88.6     38
88.62    25
88.64    37
88.66    19
88.68    23
88.7     23
88.72    29
88.74    30
88.76    21
88.78    27
88.8     23
88.82    20
88.84    30
88.86    17
88.88    35
88.9     28
88.92    31
88.93    36
88.96    34
88.98    28
89.0     24
89.02    32
89.04    43
89.06    29
89.08    34
89.1     28
89.12    36
89.14    20
89.16    30
89.18    37
89.2     20
89.22    29
89.24    34
89.26    37
89.28    27
89.3     32
89.32    37
89.34    21
89.36    29
89.38    30
89.4     34
89.42    37
89.43    29
89.46    36
89.48    34
89.5     28
89.52    35
89.54    33
89.56    37
89.58    20
89.6     26
89.62    32
89.64    23
89.66    39
89.68    34
89.7     33
89.72    34
89.74    39
89.76    31
89.78    25
89.8     30
89.82    43
89.84    21
89.86    35
89.88    28
89.9     24
89.92    33
89.93    26
89.96    21
89.98    29
90.0     24
90.02    28
90.04    19
90.06    28
90.08    29
90.1     28
90.12    26
90.14    36
90.16    23
90.18    25
90.2     34
90.22    30
90.24    38
90.26    33
90.28    24
90.3     32
90.32    23
90.34    22
90.36    23
90.38    26
90.4     25
90.42    20
90.43    27
90.46    34
90.48    32
90.5     34
90.52    32
90.54    31
90.56    30
90.58    23
90.6     26
90.62    22
90.64    17
90.66    30
90.68    29
90.7     35
90.72    23
90.74    24
90.76    38
90.78    32
90.8     29
90.82    33
90.84    30
90.86    27
90.88    30
90.9     26
90.92    22
90.93    23
90.96    20
90.98    23
91.0     32
91.02    30
91.04    27
91.06    27
91.08    22
91.1     33
91.12    26
91.14    36
91.16    21
91.18    24
91.2     32
91.22    28
91.24    26
91.26    24
91.28    26
91.3     18
91.32    21
91.34    34
91.36    25
91.38    30
91.4     22
91.42    23
91.43    27
91.46    30
91.48    24
91.5     29
91.52    27
91.54    28
91.56    29
91.58    27
91.6     34
91.62    24
91.64    21
91.66    20
91.68    26
91.7     23
91.72    28
91.74    16
91.76    26
91.78    32
91.8     33
91.82    35
91.84    26
91.86    30
91.88    28
91.9     36
91.92    25
91.93    30
91.96    40
91.98    21
92.0     30
92.02    36
92.04    25
92.06    34
92.08    37
92.1     25
92.12    31
92.14    24
92.16    38
92.18    27
92.2     28
92.22    20
92.24    34
92.26    29
92.28    34
92.3     34
92.32    31
92.34    23
92.36    32
92.38    27
92.4     32
92.42    30
92.43    28
92.46    33
92.48    30
92.5     32
92.52    27
92.54    31
92.56    32
92.58    28
92.6     31
92.62    21
92.64    27
92.66    23
92.68    21
92.7     28
92.72    22
92.74    28
92.76    26
92.78    39
92.8     34
92.82    30
92.84    31
92.86    26
92.88    20
92.9     34
92.92    26
92.93    35
92.96    30
92.98    27
93.0     30
93.02    26
93.04    20
93.06    27
93.08    31
93.1     27
93.12    25
93.14    38
93.16    26
93.18    30
93.2     25
93.22    27
93.24    27
93.26    30
93.28    26
93.3     23
93.32    27
93.34    25
93.36    37
93.38    24
93.4     25
93.42    27
93.43    26
93.46    25
93.48    29
93.5     20
93.52    33
93.54    18
93.56    24
93.58    25
93.6     24
93.62    30
93.64    28
93.66    23
93.68    19
93.7     25
93.72    30
93.74    28
93.76    30
93.78    33
93.8     31
93.82    20
93.84    29
93.86    27
93.88    32
93.9     24
93.92    22
93.93    17
93.96    38
93.98    20
94.0     28
94.02    25
94.04    20
94.06    27
94.08    18
94.1     28
94.12    34
94.14    34
94.16    39
94.18    29
94.2     22
94.22    32
94.24    35
94.26    21
94.28    29
94.3     27
94.32    31
94.34    25
94.36    27
94.38    24
94.4     32
94.42    40
94.43    33
94.46    42
94.48    33
94.5     26
94.52    35
94.54    23
94.56    25
94.58    29
94.6     35
94.62    34
94.64    23
94.66    26
94.68    28
94.7     24
94.72    24
94.74    36
94.76    27
94.78    28
94.8     42
94.82    30
94.84    24
94.86    29
94.88    30
94.9     37
94.92    25
94.93    29
94.96    27
94.98    32
95.0     30
95.02    36
95.04    21
95.06    29
95.08    31
95.1     32
95.12    32
95.14    27
95.16    31
95.18    30
95.2     29
95.22    32
95.24    22
95.25    28
95.28    23
95.3     35
95.32    37
95.34    24
95.36    24
95.38    32
95.4     33
95.42    27
95.43    20
95.46    27
95.48    38
95.5     33
95.52    28
95.54    34
95.56    34
95.58    25
95.6     41
95.62    23
95.64    36
95.66    25
95.68    32
95.7     26
95.72    30
95.74    29
95.75    26
95.78    30
95.8     30
95.82    32
95.84    16
95.86    31
95.88    21
95.9     30
95.92    30
95.93    33
95.96    34
95.98    25
96.0     26
96.02    29
96.04    28
96.06    28
96.08    24
96.1     37
96.12    30
96.14    32
96.16    16
96.18    39
96.2     26
96.22    22
96.24    32
96.25    35
96.28    37
96.3     23
96.32    33
96.34    25
96.36    28
96.38    27
96.4     29
96.42    31
96.43    25
96.46    34
96.48    25
96.5     39
96.52    30
96.54    27
96.56    31
96.58    34
96.6     33
96.62    31
96.64    32
96.66    29
96.68    34
96.7     32
96.72    27
96.74    31
96.75    22
96.78    35
96.8     29
96.82    23
96.84    41
96.86    32
96.88    37
96.9     38
96.92    31
96.93    29
96.96    35
96.98    24
97.0     36
97.02    42
97.04    38
97.06    45
97.08    50
97.1     37
97.12    54
97.14    52
97.16    45
97.18    55
97.2     41
97.22    41
97.24    61
97.25    57
97.28    43
97.3     65
97.32    71
97.34    61
97.36    86
97.38    105
97.4     116
97.42    157
97.43    201
97.46    252
97.48    342
97.5     426
97.52    490
97.54    549
97.56    581
97.58    590
97.6     527
97.62    421
97.64    440
97.66    371
97.68    335
97.7     291
97.72    249
97.74    215
97.75    180
97.78    188
97.8     202
97.82    226
97.84    231
97.86    278
97.88    293
97.9     248
97.92    263
97.93    242
97.96    220
97.98    189
98.0     165
98.02    163
98.04    114
98.06    103
98.08    97
98.1     72
98.12    77
98.14    54
98.16    66
98.18    46
98.2     50
98.22    45
98.24    42
98.25    43
98.28    26
98.3     38
98.32    31
98.34    43
98.36    35
98.38    26
98.4     32
98.42    29
98.43    31
98.46    36
98.48    36
98.5     35
98.52    30
98.54    42
98.56    39
98.58    42
98.6     34
98.62    33
98.64    22
98.66    32
98.68    32
98.7     25
98.72    28
98.74    26
98.75    19
98.78    28
98.8     29
98.82    31
98.84    37
98.86    31
98.88    31
98.9     27
98.92    25
98.93    31
98.96    22
98.98    31
99.0     23
99.02    26
99.04    31
99.06    33
99.08    25
99.1     31
99.12    28
99.14    22
99.16    34
99.18    25
99.2     28
99.22    38
99.24    36
99.25    26
99.28    33
99.3     19
99.32    26
99.34    29
99.36    25
99.38    24
99.4     30
99.42    36
99.43    28
99.46    26
99.48    34
99.5     28
99.52    23
99.54    19
99.56    30
99.58    32
99.6     39
99.62    24
99.64    27
99.66    31
99.68    19
99.7     36
99.72    35
99.74    32
99.75    29
99.78    30
99.8     27
99.82    23
99.84    36
99.86    31
99.88    37
99.9     23
99.92    26
99.93    37
99.96    17
99.98    41
100.0    26
100.02   22
100.04   29
100.06   33
100.08   22
100.1    35
100.12   29
100.14   30
100.16   23
100.18   32
100.2    20
100.22   22
100.24   24
100.26   25
100.28   28
100.3    32
100.32   26
100.34   17
100.36   30
100.38   28
100.4    21
100.42   27
100.44   33
100.46   29
100.48   20
100.5    22
100.52   28
100.54   38
100.56   24
100.58   26
100.6    34
100.62   26
100.64   24
100.66   20
100.68   30
100.7    28
100.72   35
100.74   31
100.76   24
100.78   25
100.8    26
100.82   25
100.84   31
100.86   30
100.88   36
100.9    41
100.92   35
100.94   28
100.96   29
100.98   34
101.0    27
101.02   35
101.04   28
101.06   35
101.08   30
101.1    29
101.12   28
101.14   37
101.16   27
101.18   30
101.2    31
101.22   32
101.24   31
101.26   34
101.28   33
101.3    27
101.32   24
101.34   22
101.36   34
101.38   33
101.4    30
101.42   27
101.44   37
101.46   38
101.48   24
101.5    36
101.52   23
101.54   24
101.56   23
101.58   33
101.6    26
101.62   33
101.64   29
101.66   21
101.68   22
101.7    30
101.72   32
101.74   28
101.76   24
101.78   28
101.8    41
101.82   29
101.84   27
101.86   25
101.88   31
101.9    32
101.92   17
101.94   34
101.96   23
101.98   25
102.0    36
102.02   28
102.04   32
102.06   27
102.08   40
102.1    40
102.12   22
102.14   18
102.16   24
102.18   22
102.2    27
102.22   18
102.24   22
102.26   32
102.28   29
102.3    23
102.32   29
102.34   30
102.36   24
102.38   37
102.4    25
102.42   31
102.44   20
102.46   25
102.48   34
102.5    28
102.52   29
102.54   26
102.56   32
102.58   32
102.6    33
102.62   27
102.64   28
102.66   41
102.68   31
102.7    26
102.72   30
102.74   34
102.76   28
102.78   27
102.8    26
102.82   22
102.84   21
102.86   27
102.88   29
102.9    31
102.92   30
102.94   26
102.96   22
102.98   40
103.0    25
103.02   28
103.04   28
103.06   24
103.08   27
103.1    25
103.12   25
103.14   19
103.16   33
103.18   30
103.2    29
103.22   21
103.24   24
103.26   24
103.28   23
103.3    26
103.32   36
103.34   30
103.36   23
103.38   29
103.4    26
103.42   34
103.44   39
103.46   28
103.48   40
103.5    31
103.52   40
103.54   44
103.56   37
103.58   33
103.6    36
103.62   36
103.64   42
103.66   51
103.68   52
103.7    67
103.72   79
103.74   71
103.76   54
103.78   72
103.8    73
103.82   72
103.84   68
103.86   56
103.88   58
103.9    55
103.92   47
103.94   43
103.96   42
103.98   50
104.0    54
104.02   39
104.04   52
104.06   41
104.08   43
104.1    36
104.12   55
104.14   36
104.16   48
104.18   41
104.2    45
104.22   43
104.24   33
104.26   36
104.28   51
104.3    37
104.32   25
104.34   36
104.36   33
104.38   31
104.4    32
104.42   31
104.44   46
104.46   37
104.48   20
104.5    32
104.52   26
104.54   21
104.56   29
104.58   23
104.6    20
104.62   25
104.64   29
104.66   34
104.68   40
104.7    18
104.72   33
104.74   29
104.76   26
104.78   28
104.8    32
104.82   32
104.84   29
104.86   34
104.88   37
104.9    25
104.92   31
104.94   30
104.96   32
104.98   44
105.0    37
105.02   32
105.04   29
105.06   33
105.08   31
105.1    34
105.12   38
105.14   34
105.16   33
105.18   30
105.2    38
105.22   34
105.24   34
105.26   38
105.28   25
105.3    37
105.32   33
105.34   33
105.36   37
105.38   32
105.4    30
105.42   35
105.44   28
105.46   35
105.48   27
105.5    32
105.52   26
105.54   24
105.56   26
105.58   24
105.6    33
105.62   33
105.64   32
105.66   33
105.68   30
105.7    20
105.72   36
105.74   32
105.76   27
105.78   38
105.8    42
105.82   30
105.84   38
105.86   34
105.88   47
105.9    32
105.92   30
105.94   34
105.96   31
105.98   37
106.0    30
106.02   41
106.04   22
106.06   33
106.08   30
106.1    34
106.12   29
106.14   35
106.16   46
106.18   27
106.2    39
106.22   39
106.24   34
106.26   32
106.28   33
106.3    29
106.32   35
106.34   28
106.36   37
106.38   28
106.4    25
106.42   33
106.44   37
106.46   33
106.48   30
106.5    30
106.52   24
106.54   27
106.56   25
106.58   30
106.6    30
106.62   24
106.64   33
106.66   23
106.68   36
106.7    39
106.72   26
106.74   32
106.76   38
106.78   27
106.8    29
106.82   21
106.84   25
106.86   29
106.88   23
106.9    25
106.92   38
106.94   35
106.96   33
106.98   29
107.0    33
107.02   28
107.04   34
107.06   23
107.08   26
107.1    26
107.12   37
107.14   32
107.16   40
107.18   24
107.2    27
107.22   31
107.24   19
107.26   44
107.28   37
107.3    32
107.32   32
107.34   26
107.36   20
107.38   29
107.4    23
107.42   26
107.44   29
107.46   31
107.48   25
107.5    24
107.52   37
107.54   28
107.56   32
107.58   30
107.6    33
107.62   28
107.64   28
107.66   23
107.68   29
107.7    17
107.72   27
107.74   30
107.76   22
107.78   25
107.8    28
107.82   26
107.84   26
107.86   30
107.88   26
107.9    20
107.92   25
107.94   34
107.96   21
107.98   28
108.0    20
108.02   25
108.04   20
108.06   25
108.08   23
108.1    31
108.12   22
108.14   33
108.16   32
108.18   23
108.2    26
108.22   25
108.24   35
108.26   28
108.28   29
108.3    31
108.32   24
108.34   40
108.36   36
108.38   29
108.4    29
108.42   28
108.44   20
108.46   22
108.48   37
108.5    44
108.52   21
108.54   29
108.56   31
108.58   30
108.6    24
108.62   28
108.64   25
108.66   24
108.68   18
108.7    26
108.72   32
108.74   25
108.76   31
108.78   27
108.8    23
108.82   26
108.84   21
108.86   38
108.88   25
108.9    24
108.92   41
108.94   20
108.96   33
108.98   31
109.0    35
109.02   27
109.04   24
109.06   31
109.08   37
109.1    23
109.12   30
109.14   37
109.16   33
109.18   25
109.2    33
109.22   29
109.24   28
109.26   27
109.28   29
109.3    37
109.32   29
109.34   32
109.36   28
109.38   37
109.4    45
109.42   30
109.44   36
109.46   34
109.48   25
109.5    32
109.52   29
109.54   28
109.56   36
109.58   41
109.6    24
109.62   25
109.64   32
109.66   38
109.68   34
109.7    40
109.72   21
109.74   31
109.76   31
109.78   32
109.8    33
109.82   34
109.84   32
109.86   29
109.88   45
109.9    45
109.92   22
109.94   29
109.96   30
109.98   18
110.0    30
110.02   36
110.04   28
110.06   37
110.08   25
110.1    37
110.12   41
110.14   38
110.16   26
110.18   42
110.2    30
110.22   30
110.24   36
110.26   39
110.28   31
110.3    35
110.32   38
110.34   32
110.36   32
110.38   23
110.4    35
110.42   23
110.44   27
110.46   27
110.48   34
110.5    37
110.52   36
110.54   25
110.56   38
110.58   37
110.6    24
110.62   33
110.64   28
110.66   36
110.68   26
110.7    35
110.72   28
110.74   35
110.76   34
110.78   26
110.8    22
110.82   26
110.84   34
110.86   33
110.88   34
110.9    29
110.92   33
110.94   34
110.96   27
110.98   38
111.0    32
111.02   43
111.04   35
111.06   36
111.08   38
111.1    36
111.12   41
111.14   37
111.16   30
111.18   32
111.2    44
111.22   38
111.24   28
111.26   31
111.28   31
111.3    39
111.32   29
111.34   34
111.36   44
111.38   34
111.4    37
111.42   37
111.44   37
111.46   35
111.48   37
111.5    35
111.52   35
111.54   25
111.56   33
111.58   21
111.6    40
111.62   30
111.64   35
111.66   37
111.68   29
111.7    31
111.72   30
111.74   25
111.76   37
111.78   39
111.8    30
111.82   34
111.84   33
111.86   29
111.88   34
111.9    41
111.92   36
111.94   27
111.96   31
111.98   25
112.0    34
112.02   40
112.04   22
112.06   28
112.08   27
112.1    37
112.12   27
112.14   28
112.16   36
112.18   40
112.2    31
112.22   44
112.24   29
112.26   28
112.28   29
112.3    32
112.32   33
112.34   33
112.36   28
112.38   23
112.4    39
112.42   37
112.44   32
112.46   34
112.48   21
112.5    34
112.52   33
112.54   28
112.56   24
112.58   27
112.6    31
112.62   36
112.64   24
112.66   29
112.68   40
112.7    32
112.72   43
112.74   32
112.76   31
112.78   27
112.8    38
112.82   28
112.84   24
112.86   29
112.88   36
112.9    46
112.92   40
112.94   25
112.96   40
112.98   32
113.0    37
113.02   28
113.04   28
113.06   40
113.08   35
113.1    25
113.12   35
113.14   28
113.16   43
113.18   41
113.2    28
113.22   31
113.24   34
113.26   53
113.28   28
113.3    45
113.32   27
113.34   35
113.36   32
113.38   35
113.4    50
113.42   29
113.44   34
113.46   36
113.48   31
113.5    33
113.52   39
113.54   33
113.56   31
113.58   40
113.6    47
113.62   40
113.64   51
113.66   39
113.68   49
113.7    48
113.72   41
113.74   51
113.76   51
113.78   48
113.8    37
113.82   50
113.84   50
113.86   48
113.88   61
113.9    58
113.92   45
113.94   49
113.96   50
113.98   70
114.0    66
114.02   67
114.04   63
114.06   60
114.08   43
114.1    69
114.12   83
114.14   86
114.16   92
114.18   86
114.2    104
114.22   96
114.24   98
114.26   129
114.28   125
114.3    161
114.32   186
114.34   201
114.36   248
114.38   308
114.4    349
114.42   426
114.44   515
114.46   573
114.48   661
114.5    653
114.52   712
114.54   731
114.56   713
114.58   633
114.6    641
114.62   560
114.64   541
114.66   498
114.68   437
114.7    424
114.72   378
114.74   307
114.76   321
114.78   346
114.8    298
114.82   303
114.84   297
114.86   269
114.88   316
114.9    311
114.92   374
114.94   385
114.96   346
114.98   381
115.0    353
115.02   374
115.04   331
115.06   322
115.08   261
115.1    272
115.12   224
115.14   215
115.16   227
115.18   160
115.2    154
115.22   139
115.24   128
115.26   124
115.28   114
115.3    91
115.32   102
115.34   70
115.36   65
115.38   81
115.4    62
115.42   57
115.44   59
115.46   54
115.48   55
115.5    59
115.52   40
115.54   49
115.56   51
115.58   40
115.6    30
115.62   49
115.64   43
115.66   28
115.68   43
115.7    34
115.72   22
115.74   30
115.76   35
115.78   47
115.8    26
115.82   39
115.84   38
115.86   29
115.88   32
115.9    52
115.92   43
115.94   33
115.96   36
115.98   40
116.0    34
116.02   29
116.04   23
116.06   41
116.08   27
116.1    33
116.12   38
116.14   28
116.16   36
116.18   34
116.2    36
116.22   28
116.24   30
116.26   25
116.28   28
116.3    33
116.32   37
116.34   34
116.36   32
116.38   37
116.4    34
116.42   38
116.44   16
116.46   27
116.48   25
116.5    47
116.52   34
116.54   31
116.56   27
116.58   20
116.6    45
116.62   36
116.64   39
116.66   35
116.68   35
116.7    37
116.72   29
116.74   23
116.76   33
116.78   32
116.8    37
116.82   43
116.84   26
116.86   33
116.88   35
116.9    24
116.92   25
116.94   38
116.96   38
116.98   26
117.0    31
117.02   29
117.04   43
117.06   41
117.08   36
117.1    23
117.12   30
117.14   34
117.16   39
117.18   24
117.2    32
117.22   25
117.24   27
117.26   24
117.28   34
117.3    45
117.32   30
117.34   36
117.36   33
117.38   33
117.4    47
117.42   33
117.44   27
117.46   38
117.48   28
117.5    38
117.52   28
117.54   25
117.56   27
117.58   36
117.6    26
117.62   32
117.64   39
117.66   39
117.68   32
117.7    42
117.72   25
117.74   28
117.76   48
117.78   28
117.8    36
117.82   29
117.84   34
117.86   30
117.88   24
117.9    31
117.92   27
117.94   35
117.96   25
117.98   30
118.0    32
118.02   36
118.04   30
118.06   35
118.08   28
118.1    39
118.12   23
118.14   26
118.16   32
118.18   33
118.2    29
118.22   34
118.24   29
118.26   25
118.28   49
118.3    18
118.32   41
118.34   37
118.36   37
118.38   36
118.4    37
118.42   26
118.44   34
118.46   33
118.48   30
118.5    31
118.52   27
118.54   45
118.56   29
118.58   30
118.6    46
118.62   41
118.64   27
118.66   39
118.68   32
118.7    32
118.72   38
118.74   29
118.76   34
118.78   33
118.8    32
118.82   39
118.84   38
118.86   38
118.88   40
118.9    44
118.92   35
118.94   32
118.96   33
118.98   37
119.0    27
119.02   35
119.04   40
119.06   28
119.08   36
119.1    25
119.12   36
119.14   36
119.16   26
119.18   26
119.2    31
119.22   36
119.24   25
119.26   38
119.28   40
119.3    35
119.32   30
119.34   34
119.36   29
119.38   33
119.4    36
119.42   33
119.44   29
119.46   34
119.48   33
119.5    33
119.52   26
119.54   36
119.56   36
119.58   26
119.6    25
119.62   24
119.64   33
119.66   26
119.68   21
119.7    29
119.72   36
119.74   34
119.76   29
119.78   24
119.8    30
119.82   34
119.84   29
119.86   34
119.88   28
119.9    26
119.92   25
119.94   31
119.96   33
119.98   31
120.0    23
120.02   37
120.04   35
120.06   31
120.08   24
120.1    25
120.12   26
120.14   33
120.16   26
120.18   28
120.2    24
120.22   35
120.24   27
120.26   31
120.28   30
120.3    30
120.32   29
120.34   28
120.36   23
120.38   32
120.4    27
120.42   35
120.44   38
120.46   23
120.48   27
120.5    27
120.52   24
120.54   37
120.56   32
120.58   29
120.6    33
120.62   30
120.64   26
120.66   28
120.68   36
120.7    33
120.72   26
120.74   37
120.76   28
120.78   26
120.8    28
120.82   30
120.84   34
120.86   30
120.88   32
120.9    32
120.92   40
120.94   27
120.96   26
120.98   43
121.0    31
121.02   32
121.04   35
121.06   36
121.08   34
121.1    31
121.12   28
121.14   34
121.16   19
121.18   34
121.2    30
121.22   34
121.24   40
121.26   34
121.28   33
121.3    47
121.32   51
121.34   52
121.36   48
121.38   46
121.4    53
121.42   60
121.44   49
121.46   49
121.48   53
121.5    33
121.52   38
121.54   44
121.56   34
121.58   33
121.6    35
121.62   41
121.64   49
121.66   41
121.68   40
121.7    33
121.72   28
121.74   25
121.76   40
121.78   26
121.8    35
121.82   33
121.84   37
121.86   44
121.88   37
121.9    44
121.92   36
121.94   41
121.96   30
121.98   24
122.0    42
122.02   31
122.04   35
122.06   39
122.08   45
122.1    46
122.12   33
122.14   44
122.16   41
122.18   31
122.2    33
122.22   22
122.24   33
122.26   41
122.28   35
122.3    23
122.32   31
122.34   23
122.36   39
122.38   35
122.4    30
122.42   38
122.44   21
122.46   28
122.48   21
122.5    26
122.52   42
122.54   41
122.56   39
122.58   34
122.6    24
122.62   27
122.64   46
122.66   19
122.68   31
122.7    38
122.72   35
122.74   35
122.76   31
122.78   39
122.8    32
122.82   29
122.84   31
122.86   35
122.88   31
122.9    23
122.92   25
122.94   25
122.96   30
122.98   26
123.0    31
123.02   32
123.04   36
123.06   34
123.08   25
123.1    40
123.12   32
123.14   21
123.16   31
123.18   31
123.2    35
123.22   30
123.24   30
123.26   30
123.28   35
123.3    38
123.32   25
123.34   43
123.36   34
123.38   24
123.4    38
123.42   35
123.44   32
123.46   36
123.48   28
123.5    16
123.52   32
123.54   30
123.56   35
123.58   33
123.6    30
123.62   28
123.64   30
123.66   31
123.68   22
123.7    42
123.72   31
123.74   42
123.76   33
123.78   39
123.8    31
123.82   38
123.84   42
123.86   45
123.88   43
123.9    43
123.92   29
123.94   33
123.96   37
123.98   42
124.0    35
124.02   36
124.04   32
124.06   25
124.08   38
124.1    33
124.12   29
124.14   43
124.16   32
124.18   36
124.2    27
124.22   32
124.24   30
124.26   35
124.28   37
124.3    49
124.32   44
124.34   47
124.36   35
124.38   27
124.4    39
124.42   35
124.44   41
124.46   42
124.48   31
124.5    45
124.52   28
124.54   38
124.56   32
124.58   36
124.6    43
124.62   28
124.64   37
124.66   23
124.68   44
124.7    27
124.72   25
124.74   34
124.76   30
124.78   31
124.8    27
124.82   25
124.84   36
124.86   37
124.88   28
124.9    30
124.92   32
124.94   31
124.96   38
124.98   32
125.0    25
125.02   31
125.04   24
125.06   34
125.08   30
125.1    34
125.12   25
125.14   34
125.16   33
125.18   31
125.2    32
125.22   28
125.24   39
125.26   36
125.28   32
125.3    36
125.32   50
125.34   39
125.36   35
125.38   40
125.4    39
125.42   33
125.44   32
125.46   29
125.48   40
125.5    25
125.52   43
125.54   39
125.56   25
125.58   40
125.6    45
125.62   32
125.64   33
125.66   37
125.68   25
125.7    37
125.72   27
125.74   39
125.76   32
125.78   38
125.8    27
125.82   31
125.84   25
125.86   34
125.88   34
125.9    31
125.92   31
125.94   33
125.96   28
125.98   37
126.0    38
126.02   38
126.04   31
126.06   33
126.08   32
126.1    40
126.12   28
126.14   48
126.16   24
126.18   24
126.2    39
126.22   34
126.24   33
126.26   35
126.28   47
126.3    42
126.32   34
126.34   21
126.36   39
126.38   34
126.4    36
126.42   35
126.44   26
126.46   40
126.48   42
126.5    42
126.52   30
126.54   41
126.56   23
126.58   34
126.6    36
126.62   28
126.64   23
126.66   35
126.68   35
126.7    36
126.72   36
126.74   34
126.76   40
126.78   28
126.8    28
126.82   29
126.84   41
126.86   26
126.88   27
126.9    22
126.92   35
126.94   40
126.96   34
126.98   26
127.0    34
127.02   40
127.04   35
127.06   44
127.08   29
127.1    33
127.12   36
127.14   42
127.16   25
127.18   42
127.2    39
127.22   29
127.24   21
127.26   26
127.28   35
127.3    33
127.32   31
127.34   35
127.36   33
127.38   30
127.4    36
127.42   27
127.44   24
127.46   35
127.48   33
127.5    29
127.52   32
127.54   28
127.56   34
127.58   45
127.6    37
127.62   40
127.64   27
127.66   31
127.68   26
127.7    37
127.72   27
127.74   25
127.76   42
127.78   30
127.8    39
127.82   22
127.84   28
127.86   31
127.88   30
127.9    34
127.92   36
127.94   37
127.96   22
127.98   29
128.0    35
128.02   25
128.04   24
128.06   35
128.08   33
128.1    37
128.12   40
128.14   33
128.16   33
128.18   32
128.2    38
128.22   27
128.24   33
128.26   31
128.28   28
128.3    36
128.32   31
128.34   29
128.36   26
128.38   29
128.4    25
128.42   27
128.44   37
128.46   36
128.48   21
128.5    24
128.52   31
128.54   37
128.56   27
128.58   34
128.6    27
128.62   35
128.64   39
128.66   36
128.68   37
128.7    37
128.72   28
128.74   33
128.76   36
128.78   32
128.8    32
128.82   28
128.84   36
128.86   36
128.88   25
128.9    25
128.92   33
128.94   26
128.96   27
128.98   36
129.0    24
129.02   26
129.04   34
129.06   36
129.08   30
129.1    38
129.12   24
129.14   33
129.16   29
129.18   33
129.2    44
129.22   28
129.24   26
129.26   31
129.28   26
129.3    23
129.32   41
129.34   38
129.36   38
129.38   37
129.4    38
129.42   30
129.44   27
129.46   35
129.48   27
129.5    20
129.52   39
129.54   37
129.56   41
129.58   28
129.6    36
129.62   33
129.64   31
129.66   38
129.68   43
129.7    28
129.72   34
129.74   23
129.76   34
129.78   32
129.8    30
129.82   31
129.84   37
129.86   31
129.88   31
129.9    35
129.92   55
129.94   33
129.96   28
129.98   35
130.0    24
130.02   33
130.04   24
130.06   29
130.08   34
130.1    27
130.12   31
130.14   29
130.16   40
130.18   33
130.2    44
130.22   26
130.24   38
130.26   30
130.28   38
130.3    43
130.32   42
130.34   35
130.36   33
130.38   40
130.4    35
130.42   29
130.44   29
130.46   40
130.48   43
130.5    28
130.52   28
130.54   42
130.56   35
130.58   32
130.6    49
130.62   43
130.64   36
130.66   37
130.68   44
130.7    45
130.72   31
130.74   27
130.76   28
130.78   33
130.8    41
130.82   36
130.84   32
130.86   33
130.88   35
130.9    48
130.92   40
130.94   51
130.96   35
130.98   30
131.0    33
131.02   39
131.04   41
131.06   36
131.08   36
131.1    31
131.12   35
131.14   30
131.16   40
131.18   25
131.2    30
131.22   41
131.24   28
131.26   39
131.28   36
131.3    39
131.32   36
131.34   38
131.36   22
131.38   37
131.4    27
131.42   29
131.44   34
131.46   41
131.48   34
131.5    40
131.52   51
131.54   41
131.56   36
131.58   44
131.6    30
131.62   30
131.64   46
131.66   43
131.68   31
131.7    36
131.72   31
131.74   36
131.76   33
131.78   42
131.8    36
131.82   32
131.84   33
131.86   42
131.88   32
131.9    33
131.92   38
131.94   36
131.96   32
131.98   38
132.0    28
132.02   37
132.04   36
132.06   30
132.08   36
132.1    32
132.12   37
132.14   41
132.16   47
132.18   38
132.2    43
132.22   39
132.24   27
132.26   31
132.28   36
132.3    50
132.32   36
132.34   32
132.36   34
132.38   32
132.4    28
132.42   35
132.44   31
132.46   36
132.48   41
132.5    30
132.52   31
132.54   39
132.56   35
132.58   27
132.6    34
132.62   33
132.64   27
132.66   45
132.68   37
132.7    35
132.72   29
132.74   39
132.76   33
132.78   46
132.8    34
132.82   41
132.84   37
132.86   29
132.88   43
132.9    32
132.92   31
132.94   39
132.96   42
132.98   33
133.0    32
133.02   47
133.04   30
133.06   40
133.08   32
133.1    43
133.12   40
133.14   38
133.16   29
133.18   33
133.2    32
133.22   41
133.24   28
133.26   34
133.28   47
133.3    38
133.32   37
133.34   38
133.36   37
133.38   37
133.4    39
133.42   43
133.44   32
133.46   37
133.48   40
133.5    35
133.52   28
133.54   41
133.56   35
133.58   38
133.6    38
133.62   38
133.64   50
133.66   38
133.68   45
133.7    54
133.72   43
133.74   37
133.76   35
133.78   36
133.8    34
133.82   43
133.84   45
133.86   45
133.88   45
133.9    48
133.92   42
133.94   45
133.96   52
133.98   52
134.0    47
134.02   55
134.04   63
134.06   71
134.08   72
134.1    62
134.12   85
134.14   101
134.16   73
134.18   91
134.2    119
134.22   135
134.24   150
134.26   158
134.28   170
134.3    198
134.32   198
134.34   198
134.36   233
134.38   215
134.4    190
134.42   217
134.44   228
134.46   178
134.48   161
134.5    175
134.52   185
134.54   170
134.56   148
134.58   168
134.6    139
134.62   116
134.64   107
134.66   134
134.68   112
134.7    91
134.72   107
134.74   82
134.76   85
134.78   94
134.8    96
134.82   77
134.84   86
134.86   94
134.88   86
134.9    85
134.92   105
134.94   95
134.96   104
134.98   130
135.0    130
135.02   117
135.04   121
135.06   110
135.08   116
135.1    107
135.12   106
135.14   92
135.16   96
135.18   107
135.2    98
135.22   72
135.24   85
135.26   86
135.28   92
135.3    91
135.32   90
135.34   82
135.36   68
135.38   61
135.4    46
135.42   61
135.44   58
135.46   57
135.48   43
135.5    52
135.52   45
135.54   49
135.56   39
135.58   44
135.6    41
135.62   53
135.64   51
135.66   36
135.68   41
135.7    34
135.72   45
135.74   54
135.76   47
135.78   39
135.8    40
135.82   41
135.84   47
135.86   29
135.88   43
135.9    38
135.92   44
135.94   37
135.96   42
135.98   45
136.0    61
136.02   26
136.04   33
136.06   42
136.08   43
136.1    37
136.12   31
136.14   42
136.16   35
136.18   41
136.2    33
136.22   23
136.24   40
136.26   32
136.28   40
136.3    27
136.32   40
136.34   41
136.36   44
136.38   37
136.4    34
136.42   33
136.44   29
136.46   37
136.48   44
136.5    37
136.52   27
136.54   28
136.56   33
136.58   32
136.6    41
136.62   38
136.64   45
136.66   41
136.68   34
136.7    43
136.72   30
136.74   25
136.76   37
136.78   35
136.8    36
136.82   29
136.84   28
136.86   37
136.88   35
136.9    33
136.92   34
136.94   34
136.96   30
136.98   28
137.0    26
137.02   37
137.04   40
137.06   40
137.08   40
137.1    40
137.12   39
137.14   42
137.16   35
137.18   36
137.2    33
137.22   33
137.24   34
137.26   34
137.28   33
137.3    38
137.32   27
137.34   34
137.36   40
137.38   33
137.4    43
137.42   28
137.44   38
137.46   29
137.48   36
137.5    51
137.52   37
137.54   32
137.56   39
137.58   41
137.6    35
137.62   18
137.64   29
137.66   36
137.68   39
137.7    39
137.72   32
137.74   51
137.76   35
137.78   36
137.8    40
137.82   22
137.84   34
137.86   47
137.88   42
137.9    23
137.92   34
137.94   33
137.96   36
137.98   41
138.0    30
138.02   40
138.04   35
138.06   35
138.08   26
138.1    31
138.12   36
138.14   27
138.16   32
138.18   44
138.2    37
138.22   36
138.24   39
138.26   43
138.28   43
138.3    44
138.32   38
138.34   39
138.36   29
138.38   32
138.4    42
138.42   35
138.44   26
138.46   40
138.48   36
138.5    27
138.52   32
138.54   38
138.56   39
138.58   32
138.6    43
138.62   33
138.64   39
138.66   37
138.68   38
138.7    35
138.72   47
138.74   35
138.76   32
138.78   28
138.8    36
138.82   36
138.84   34
138.86   39
138.88   30
138.9    36
138.92   28
138.94   31
138.96   31
138.98   33
139.0    45
139.02   36
139.04   39
139.06   37
139.08   36
139.1    26
139.12   41
139.14   37
139.16   34
139.18   36
139.2    32
139.22   41
139.24   44
139.26   33
139.28   38
139.3    38
139.32   39
139.34   26
139.36   47
139.38   33
139.4    34
139.42   29
139.44   38
139.46   46
139.48   27
139.5    36
139.52   32
139.54   45
139.56   37
139.58   43
139.6    30
139.62   33
139.64   32
139.66   33
139.68   42
139.7    34
139.72   46
139.74   39
139.76   40
139.78   42
139.8    37
139.82   34
139.84   46
139.86   29
139.88   32
139.9    35
139.92   38
139.94   30
139.96   37
139.98   41
140.0    35
