20.0     71
20.02    55
20.04    59
20.06    60
20.08    56
20.1     48
20.12    68
20.14    64
20.16    49
20.18    64
20.2     50
20.22    52
20.24    56
20.26    66
20.28    62
20.3     37
20.32    58
20.34    65
20.36    65
20.38    39
20.4     60
20.42    66
20.44    48
20.46    44
20.48    44
20.5     56
20.52    38
20.54    59
20.56    63
20.58    57
20.6     57
20.62    53
20.64    58
20.66    51
20.68    62
20.7     49
20.72    56
20.74    66
20.76    52
20.78    60
20.8     58
20.82    52
20.84    52
20.86    57
20.88    51
20.9     55
20.92    44
20.94    50
20.96    54
20.98    39
21.0     55
21.02    52
21.04    52
21.06    54
21.08    61
21.1     68
21.12    54
21.14    56
21.16    41
21.18    46
21.2     65
21.22    47
21.24    46
21.26    53
21.28    59
21.3     60
21.32    43
21.34    49
21.36    43
21.38    39
21.4     44
21.42    50
21.44    49
21.46    69
21.48    51
21.5     61
21.52    52
21.54    59
21.56    50
21.58    75
21.6     51
21.62    73
21.64    51
21.66    54
21.68    52
21.7     47
21.72    56
21.74    45
21.76    48
21.78    51
21.8     47
21.82    53
21.84    53
21.86    45
21.88    38
21.9     55
21.92    43
21.94    50
21.96    57
21.98    54
22.0     47
22.02    43
22.04    42
22.06    55
22.08    55
22.1     42
22.12    58
22.14    55
22.16    47
22.18    44
22.2     58
22.22    57
22.24    39
22.26    44
22.28    51
22.3     52
22.32    40
22.34    60
22.36    51
22.38    53
22.4     48
22.42    51
22.44    46
22.46    43
22.48    50
22.5     49
22.52    47
22.54    42
22.56    53
22.58    48
22.6     45
22.62    45
22.64    48
22.66    46
22.68    65
22.7     51
22.72    49
22.74    56
22.76    38
22.78    47
22.8     46
22.82    47
22.84    40
22.86    47
22.88    58
22.9     50
22.92    37
22.94    63
22.96    51
22.98    56
23.0     47
23.02    49
23.04    43
23.06    44
23.08    51
23.1     58
23.12    44
23.14    58
23.16    41
23.18    51
23.2     39
23.22    56
23.24    39
23.26    41
23.28    65
23.3     29
23.32    44
23.34    42
23.36    38
23.38    54
23.4     52
23.42    46
23.44    42
23.46    40
23.48    43
23.5     39
23.52    39
23.54    48
23.56    53
23.58    57
23.6     45
23.62    46
23.64    46
23.66    35
23.68    56
23.7     76
23.72    28
23.74    42
23.76    44
23.78    33
23.8     40
23.82    35
23.84    34
23.86    27
23.88    47
23.9     35
23.92    55
23.94    52
23.96    54
23.98    43
24.0     35
24.02    48
24.04    53
24.06    37
24.08    44
24.1     47
24.12    42
24.14    36
24.16    39
24.18    48
24.2     47
24.22    45
24.24    51
24.26    49
24.28    46
24.3     49
24.32    56
24.34    38
24.36    37
24.38    44
24.4     47
24.42    46
24.44    38
24.46    48
24.48    43
24.5     43
24.52    45
24.54    43
24.56    46
24.58    45
24.6     29
24.62    54
24.64    44
24.66    53
24.68    40
24.7     42
24.72    39
24.74    34
24.76    49
24.78    38
24.8     45
24.82    35
24.84    44
24.86    29
24.88    46
24.9     37
24.92    42
24.94    42
24.96    48
24.98    49
25.0     39
25.02    38
25.04    46
25.06    55
25.08    49
25.1     34
25.12    32
25.14    34
25.16    32
25.18    54
25.2     47
25.22    41
25.24    38
25.26    45
25.28    37
25.3     52
25.32    44
25.34    39
25.36    42
25.38    39
25.4     44
25.42    49
25.44    46
25.46    43
25.48    36
25.5     43
25.52    58
25.54    41
25.56    44
25.58    28
25.6     40
25.62    36
25.64    39
25.66    37
25.68    39
25.7     45
25.72    51
25.74    44
25.76    48
25.78    31
25.8     45
25.82    54
25.84    37
25.86    43
25.88    51
25.9     41
25.92    46
25.94    39
25.96    48
25.98    33
26.0     38
26.02    40
26.04    54
26.06    37
26.08    39
26.1     41
26.12    38
26.14    38
26.16    30
26.18    38
26.2     37
26.22    48
26.24    50
26.26    43
26.28    48
26.3     45
26.32    51
26.34    62
26.36    63
26.38    68
26.4     77
26.42    84
26.44    103
26.46    138
26.48    201
26.5     216
26.52    269
26.54    307
26.56    287
26.58    289
26.6     226
26.62    177
26.64    129
26.66    104
26.68    68
26.7     59
26.72    47
26.74    40
26.76    33
26.78    40
26.8     52
26.82    53
26.84    40
26.86    40
26.88    40
26.9     37
26.92    48
26.94    37
26.96    36
26.98    20
27.0     35
27.02    25
27.04    46
27.06    36
27.08    43
27.1     39
27.12    39
27.14    29
27.16    28
27.18    39
27.2     54
27.22    35
27.24    33
27.26    38
27.28    37
27.3     41
27.32    40
27.34    42
27.36    31
27.38    33
27.4     35
27.42    35
27.44    36
27.46    31
27.48    37
27.5     36
27.52    36
27.54    43
27.56    43
27.58    39
27.6     33
27.62    31
27.64    32
27.66    47
27.68    36
27.7     33
27.72    33
27.74    33
27.76    26
27.78    31
27.8     38
27.82    25
27.84    37
27.86    43
27.88    31
27.9     37
27.92    32
27.94    30
27.96    37
27.98    28
28.0     43
28.02    31
28.04    47
28.06    40
28.08    43
28.1     39
28.12    40
28.14    37
28.16    34
28.18    42
28.2     32
28.22    35
28.24    30
28.26    41
28.28    42
28.3     33
28.32    39
28.34    36
28.36    45
28.38    26
28.4     29
28.42    33
28.44    33
28.46    41
28.48    37
28.5     30
28.52    40
28.54    37
28.56    23
28.58    28
28.6     24
28.62    31
28.64    41
28.66    30
28.68    31
28.7     32
28.72    31
28.74    38
28.76    36
28.78    36
28.8     28
28.82    37
28.84    24
28.86    24
28.88    30
28.9     41
28.92    27
28.94    35
28.96    36
28.98    40
29.0     30
29.02    30
29.04    37
29.06    25
29.08    47
29.1     30
29.12    34
29.14    38
29.16    36
29.18    24
29.2     37
29.22    42
29.24    34
29.26    34
29.28    32
29.3     33
29.32    28
29.34    26
29.36    33
29.38    37
29.4     34
29.42    30
29.44    34
29.46    32
29.48    38
29.5     42
29.52    35
29.54    37
29.56    25
29.58    25
29.6     35
29.62    38
29.64    34
29.66    39
29.68    30
29.7     39
29.72    35
29.74    24
29.76    28
29.78    40
29.8     36
29.82    38
29.84    25
29.86    40
29.88    36
29.9     35
29.92    51
29.94    45
29.96    38
29.98    36
30.0     32
30.02    36
30.04    38
30.06    30
30.08    31
30.1     31
30.12    41
30.14    33
30.16    35
30.18    37
30.2     25
30.22    30
30.24    31
30.26    40
30.28    43
30.3     32
30.32    30
30.34    27
30.36    36
30.38    47
30.4     27
30.42    31
30.44    33
30.46    36
30.48    36
30.5     32
30.52    41
30.54    34
30.56    48
30.58    38
30.6     62
30.62    43
30.64    59
30.66    61
30.68    84
30.7     87
30.72    146
30.74    195
30.76    166
30.78    167
30.8     149
30.82    131
30.84    112
30.86    104
30.88    81
30.9     61
30.92    46
30.94    48
30.96    55
30.98    39
31.0     36
31.02    37
31.04    27
31.06    29
31.08    36
31.1     21
31.12    28
31.14    40
31.16    45
31.18    45
31.2     32
31.22    45
31.24    40
31.26    38
31.28    44
31.3     37
31.32    29
31.34    47
31.36    40
31.38    49
31.4     38
31.42    34
31.44    39
31.46    39
31.48    33
31.5     30
31.52    41
31.54    40
31.56    32
31.58    40
31.6     35
31.62    30
31.64    27
31.66    37
31.68    25
31.7     41
31.72    30
31.74    28
31.76    31
31.78    28
31.8     32
31.82    26
31.84    28
31.86    28
31.88    20
31.9     18
31.92    30
31.94    37
31.96    24
31.98    35
32.0     23
32.02    24
32.04    17
32.06    38
32.08    36
32.1     26
32.12    26
32.14    30
32.16    27
32.18    35
32.2     25
32.22    32
32.24    27
32.26    37
32.28    31
32.3     35
32.32    29
32.34    35
32.36    27
32.38    47
32.4     34
32.42    29
32.44    23
32.46    33
32.48    24
32.5     30
32.52    26
32.54    24
32.56    27
32.58    20
32.6     36
32.62    27
32.64    20
32.66    28
32.68    37
32.7     42
32.72    30
32.74    28
32.76    34
32.78    36
32.8     29
32.82    27
32.84    38
32.86    30
32.88    34
32.9     32
32.92    43
32.94    15
32.96    29
32.98    33
33.0     21
33.02    27
33.04    24
33.06    22
33.08    27
33.1     36
33.12    32
33.14    27
33.16    32
33.18    35
33.2     29
33.22    28
33.24    24
33.26    23
33.28    29
33.3     30
33.32    32
33.34    24
33.36    28
33.38    29
33.4     32
33.42    30
33.44    32
33.46    26
33.48    31
33.5     31
33.52    29
33.54    25
33.56    28
33.58    27
33.6     36
33.62    37
33.64    28
33.66    37
33.68    23
33.7     30
33.72    40
33.74    30
33.76    24
33.78    25
33.8     34
33.82    21
33.84    29
33.86    33
33.88    21
33.9     17
33.92    37
33.94    29
33.96    34
33.98    32
34.0     35
34.02    26
34.04    30
34.06    35
34.08    28
34.1     29
34.12    49
34.14    38
34.16    46
34.18    33
34.2     47
34.22    36
34.24    42
34.26    34
34.28    39
34.3     39
34.32    49
34.34    34
34.36    36
34.38    45
34.4     31
34.42    33
34.44    32
34.46    30
34.48    25
34.5     35
34.52    35
34.54    28
34.56    28
34.58    35
34.6     27
34.62    29
34.64    22
34.66    34
34.68    32
34.7     29
34.72    26
34.74    25
34.76    27
34.78    24
34.8     40
34.82    26
34.84    25
34.86    28
34.88    31
34.9     32
34.92    25
34.94    20
34.96    43
34.98    31
35.0     38
35.02    26
35.04    32
35.06    34
35.08    27
35.1     30
35.12    33
35.14    33
35.16    38
35.18    38
35.2     28
35.22    38
35.24    35
35.26    36
35.28    22
35.3     28
35.32    39
35.34    24
35.36    44
35.38    32
35.4     26
35.42    35
35.44    39
35.46    25
35.48    26
35.5     38
35.52    31
35.54    34
35.56    29
35.58    28
35.6     29
35.62    19
35.64    37
35.66    28
35.68    42
35.7     28
35.72    30
35.74    31
35.76    29
35.78    30
35.8     35
35.82    30
35.84    26
35.86    24
35.88    31
35.9     43
35.92    32
35.94    37
35.96    32
35.98    34
36.0     29
36.02    28
36.04    34
36.06    29
36.08    31
36.1     24
36.12    26
36.14    28
36.16    29
36.18    25
36.2     30
36.22    35
36.24    29
36.26    26
36.28    25
36.3     34
36.32    20
36.34    35
36.36    28
36.38    25
36.4     26
36.42    17
36.44    33
36.46    26
36.48    26
36.5     26
36.52    43
36.54    19
36.56    26
36.58    25
36.6     30
36.62    27
36.64    31
36.66    41
36.68    29
36.7     35
36.72    30
36.74    35
36.76    24
36.78    35
36.8     26
36.82    32
36.84    32
36.86    27
36.88    35
36.9     22
36.92    35
36.94    20
36.96    30
36.98    21
37.0     25
37.02    28
37.04    30
37.06    23
37.08    31
37.1     30
37.12    30
37.14    26
37.16    21
37.18    31
37.2     33
37.22    25
37.24    15
37.26    30
37.28    33
37.3     18
37.32    20
37.34    27
37.36    32
37.38    34
37.4     26
37.42    31
37.44    25
37.46    25
37.48    21
37.5     27
37.52    35
37.54    24
37.56    27
37.58    23
37.6     30
37.62    26
37.64    25
37.66    34
37.68    29
37.7     31
37.72    28
37.74    29
37.76    34
37.78    37
37.8     39
37.82    30
37.84    32
37.86    38
37.88    28
37.9     32
37.92    22
37.94    35
37.96    27
37.98    22
38.0     15
38.02    29
38.04    30
38.06    23
38.08    30
38.1     29
38.12    27
38.14    24
38.16    32
38.18    29
38.2     31
38.22    22
38.24    29
38.26    26
38.28    33
38.3     25
38.32    27
38.34    35
38.36    21
38.38    32
38.4     29
38.42    29
38.44    31
38.46    24
38.48    40
38.5     31
38.52    36
38.54    42
38.56    40
38.58    38
38.6     48
38.62    47
38.64    41
38.66    51
38.68    47
38.7     48
38.72    48
38.74    43
38.76    53
38.78    44
38.8     39
38.82    33
38.84    32
38.86    31
38.88    38
38.9     54
38.92    32
38.94    25
38.96    31
38.98    31
39.0     36
39.02    17
39.04    39
39.06    30
39.08    38
39.1     23
39.12    33
39.14    21
39.16    32
39.18    25
39.2     29
39.22    30
39.24    32
39.26    25
39.28    22
39.3     29
39.32    25
39.34    25
39.36    30
39.38    23
39.4     33
39.42    28
39.44    28
39.46    32
39.48    20
39.5     21
39.52    24
39.54    28
39.56    22
39.58    25
39.6     23
39.62    25
39.64    26
39.66    23
39.68    26
39.7     28
39.72    28
39.74    24
39.76    22
39.78    34
39.8     23
39.82    27
39.84    16
39.86    32
39.88    27
39.9     25
39.92    21
39.94    26
39.96    28
39.98    20
40.0     33
40.02    24
40.04    24
40.06    18
40.08    39
40.1     23
40.12    27
40.14    27
40.16    28
40.18    23
40.2     29
40.22    27
40.24    18
40.26    17
40.28    35
40.3     23
40.32    30
40.34    25
40.36    24
40.38    20
40.4     26
40.42    19
40.44    34
40.46    28
40.48    27
40.5     17
40.52    31
40.54    26
40.56    29
40.58    24
40.6     24
40.62    31
40.64    32
40.66    32
40.68    28
40.7     32
40.72    37
40.74    27
40.76    37
40.78    38
40.8     35
40.82    37
40.84    36
40.86    38
40.88    37
40.9     36
40.92    44
40.94    40
40.96    52
40.98    48
41.0     52
41.02    52
41.04    59
41.06    45
41.08    59
41.1     71
41.12    51
41.14    62
41.16    55
41.18    72
41.2     56
41.22    63
41.24    73
41.26    63
41.28    48
41.3     47
41.32    51
41.34    49
41.36    44
41.38    49
41.4     48
41.42    39
41.44    41
41.46    42
41.48    23
41.5     34
41.52    24
41.54    32
41.56    24
41.58    34
41.6     38
41.62    31
41.64    22
41.66    30
41.68    33
41.7     21
41.72    27
41.74    25
41.76    29
41.78    23
41.8     20
41.82    35
41.84    26
41.86    21
41.88    34
41.9     22
41.92    18
41.94    26
41.96    23
41.98    25
42.0     26
42.02    11
42.04    17
42.06    27
42.08    23
42.1     21
42.12    28
42.14    22
42.16    28
42.18    34
42.2     21
42.22    25
42.24    27
42.26    37
42.28    31
42.3     28
42.32    31
42.34    29
42.36    34
42.38    30
42.4     27
42.42    13
42.44    28
42.46    23
42.48    31
42.5     29
42.52    24
42.54    25
42.56    32
42.58    20
42.6     28
42.62    23
42.64    24
42.66    29
42.68    29
42.7     23
42.72    28
42.74    34
42.76    15
42.78    32
42.8     27
42.82    26
42.84    21
42.86    22
42.88    41
42.9     32
42.92    29
42.94    23
42.96    35
42.98    22
43.0     36
43.02    27
43.04    29
43.06    29
43.08    34
43.1     27
43.12    33
43.14    31
43.16    31
43.18    45
43.2     36
43.22    34
43.24    38
43.26    35
43.28    37
43.3     31
43.32    37
43.34    43
43.36    42
43.38    33
43.4     33
43.42    32
43.44    37
43.46    31
43.48    42
43.5     47
43.52    38
43.54    40
43.56    49
43.58    57
43.6     62
43.62    61
43.64    78
43.66    82
43.68    92
43.7     93
43.72    100
43.74    95
43.76    86
43.78    94
43.8     91
43.82    136
43.84    142
43.86    138
43.88    174
43.9     199
43.92    221
43.94    303
43.96    382
43.98    498
44.0     754
44.02    1065
44.04    1450
44.06    2024
44.08    2769
44.1     3412
44.12    3821
44.14    3761
44.16    3235
44.18    2720
44.2     2282
44.22    2126
44.24    1958
44.26    1737
44.28    1353
44.3     963
44.32    643
44.34    411
44.36    312
44.38    203
44.4     158
44.42    132
44.44    97
44.46    87
44.48    71
44.5     48
44.52    52
44.54    48
44.56    57
44.58    49
44.6     39
44.62    34
44.64    44
44.66    31
44.68    34
44.7     35
44.72    25
44.74    34
44.76    29
44.78    36
44.8     28
44.82    30
44.84    27
44.86    37
44.88    23
44.9     36
44.92    32
44.94    38
44.96    35
44.98    29
45.0     25
45.02    47
45.04    19
45.06    23
45.08    34
45.1     37
45.12    37
45.14    32
45.16    22
45.18    26
45.2     33
45.22    22
45.24    41
45.26    26
45.28    35
45.3     19
45.32    23
45.34    29
45.36    27
45.38    19
45.4     35
45.42    23
45.44    26
45.46    29
45.48    18
45.5     25
45.52    24
45.54    36
45.56    20
45.58    21
45.6     27
45.62    27
45.64    15
45.66    25
45.68    33
45.7     27
45.72    23
45.74    23
45.76    20
45.78    22
45.8     21
45.82    23
45.84    23
45.86    20
45.88    24
45.9     19
45.92    21
45.94    29
45.96    19
45.98    14
46.0     23
46.02    14
46.04    27
46.06    17
46.08    22
46.1     26
46.12    28
46.14    31
46.16    24
46.18    16
46.2     18
46.22    15
46.24    25
46.26    19
46.28    18
46.3     20
46.32    20
46.34    21
46.36    25
46.38    24
46.4     20
46.42    21
46.44    17
46.46    18
46.48    20
46.5     23
46.52    15
46.54    20
46.56    30
46.58    24
46.6     16
46.62    21
46.64    20
46.66    28
46.68    20
46.7     30
46.72    22
46.74    23
46.76    20
46.78    12
46.8     29
46.82    16
46.84    17
46.86    29
46.88    17
46.9     26
46.92    27
46.94    29
46.96    24
46.98    20
47.0     26
47.02    32
47.04    23
47.06    25
47.08    29
47.1     28
47.12    18
47.14    22
47.16    20
47.18    13
47.2     32
47.22    25
47.24    24
47.26    22
47.28    23
47.3     23
47.32    22
47.34    24
47.36    27
47.38    18
47.4     13
47.42    18
47.44    30
47.46    18
47.48    21
47.5     27
47.52    22
47.54    24
47.56    26
47.58    37
47.6     41
47.62    22
47.64    22
47.66    27
47.68    17
47.7     25
47.72    25
47.74    20
47.76    20
47.78    16
47.8     16
47.82    20
47.84    23
47.86    31
47.88    24
47.9     21
47.92    32
47.94    28
47.96    17
47.98    26
48.0     16
48.02    17
48.04    15
48.06    14
48.08    17
48.1     21
48.12    20
48.14    29
48.16    21
48.18    19
48.2     19
48.22    20
48.24    22
48.26    19
48.28    24
48.3     19
48.32    15
48.34    28
48.36    20
48.38    25
48.4     26
48.42    27
48.44    28
48.46    20
48.48    28
48.5     16
48.52    25
48.54    24
48.56    22
48.58    14
48.6     21
48.62    20
48.64    15
48.66    17
48.68    26
48.7     31
48.72    16
48.74    22
48.76    29
48.78    18
48.8     17
48.82    15
48.84    22
48.86    26
48.88    18
48.9     23
48.92    14
48.94    23
48.96    13
48.98    24
49.0     17
49.02    23
49.04    23
49.06    19
49.08    25
49.1     14
49.12    10
49.14    20
49.16    24
49.18    17
49.2     16
49.22    18
49.24    24
49.26    23
49.28    17
49.3     27
49.32    29
49.34    20
49.36    24
49.38    16
49.4     23
49.42    18
49.44    24
49.46    19
49.48    19
49.5     21
49.52    21
49.54    15
49.56    22
49.58    23
49.6     27
49.62    23
49.64    27
49.66    25
49.68    27
49.7     27
49.72    21
49.74    18
49.76    20
49.78    31
49.8     22
49.82    24
49.84    23
49.86    20
49.88    27
49.9     32
49.92    16
49.94    16
49.96    26
49.98    19
50.0     32
50.02    26
50.04    13
50.06    18
50.08    20
50.1     24
50.12    30
50.14    20
50.16    23
50.18    24
50.2     18
50.22    20
50.24    25
50.26    25
50.28    21
50.3     21
50.32    18
50.34    24
50.36    31
50.38    17
50.4     16
50.42    19
50.44    21
50.46    14
50.48    20
50.5     19
50.52    22
50.54    20
50.56    22
50.58    17
50.6     26
50.62    17
50.64    19
50.66    18
50.68    31
50.7     31
50.72    22
50.74    30
50.76    23
50.78    26
50.8     19
50.82    17
50.84    28
50.86    17
50.88    25
50.9     22
50.92    24
50.94    35
50.96    19
50.98    29
51.0     19
51.02    15
51.04    21
51.06    15
51.08    25
51.1     17
51.12    22
51.14    18
51.16    18
51.18    20
51.2     20
51.22    22
51.24    16
51.26    20
51.28    23
51.3     16
51.32    21
51.34    25
51.36    22
51.38    16
51.4     21
51.42    20
51.44    17
51.46    21
51.48    22
51.5     22
51.52    19
51.54    12
51.56    23
51.58    28
51.6     19
51.62    24
51.64    19
51.66    20
51.68    22
51.7     25
51.72    20
51.74    18
51.76    21
51.78    11
51.8     19
51.82    34
51.84    27
51.86    23
51.88    28
51.9     21
51.92    24
51.94    23
51.96    29
51.98    25
52.0     25
52.02    30
52.04    31
52.06    28
52.08    29
52.1     31
52.12    33
52.14    34
52.16    62
52.18    59
52.2     68
52.22    117
52.24    124
52.26    156
52.28    175
52.3     154
52.32    140
52.34    111
52.36    105
52.38    80
52.4     96
52.42    89
52.44    86
52.46    78
52.48    76
52.5     39
52.52    50
52.54    38
52.56    34
52.58    27
52.6     23
52.62    23
52.64    28
52.66    35
52.68    25
52.7     24
52.72    23
52.74    18
52.76    17
52.78    30
52.8     23
52.82    19
52.84    26
52.86    28
52.88    29
52.9     24
52.92    27
52.94    19
52.96    15
52.98    16
53.0     17
53.02    20
53.04    26
53.06    19
53.08    18
53.1     16
53.12    26
53.14    18
53.16    20
53.18    32
53.2     23
53.22    10
53.24    21
53.26    26
53.28    23
53.3     21
53.32    21
53.34    23
53.36    12
53.38    15
53.4     22
53.42    26
53.44    22
53.46    16
53.48    22
53.5     25
53.52    21
53.54    28
53.56    20
53.58    26
53.6     23
53.62    19
53.64    23
53.66    25
53.68    24
53.7     18
53.72    19
53.74    20
53.76    24
53.78    18
53.8     19
53.82    19
53.84    22
53.86    24
53.88    30
53.9     24
53.92    24
53.94    26
53.96    27
53.98    15
54.0     23
54.02    29
54.04    20
54.06    25
54.08    21
54.1     23
54.12    27
54.14    21
54.16    22
54.18    16
54.2     17
54.22    20
54.24    16
54.26    22
54.28    18
54.3     22
54.32    24
54.34    20
54.36    26
54.38    20
54.4     29
54.42    18
54.44    20
54.46    21
54.48    29
54.5     18
54.52    27
54.54    27
54.56    23
54.58    22
54.6     16
54.62    20
54.64    20
54.66    26
54.68    23
54.7     21
54.72    18
54.74    31
54.76    21
54.78    34
54.8     42
54.82    35
54.84    35
54.86    27
54.88    24
54.9     26
54.92    26
54.94    42
54.96    27
54.98    29
55.0     21
55.02    22
55.04    25
55.06    33
55.08    30
55.1     22
55.12    26
55.14    23
55.16    23
55.18    26
55.2     10
55.22    22
55.24    30
55.26    28
55.28    24
55.3     20
55.32    22
55.34    25
55.36    22
55.38    27
55.4     21
55.42    29
55.44    25
55.46    26
55.48    19
55.5     13
55.52    29
55.54    20
55.56    16
55.58    16
55.6     28
55.62    21
55.64    25
55.66    19
55.68    22
55.7     19
55.72    22
55.74    26
55.76    28
55.78    17
55.8     17
55.82    25
55.84    15
55.86    28
55.88    14
55.9     24
55.92    23
55.94    17
55.96    22
55.98    18
56.0     29
56.02    30
56.04    24
56.06    17
56.08    22
56.1     23
56.12    16
56.14    16
56.16    22
56.18    16
56.2     18
56.22    23
56.24    20
56.26    19
56.28    13
56.3     20
56.32    23
56.34    23
56.36    18
56.38    27
56.4     18
56.42    17
56.44    17
56.46    19
56.48    31
56.5     21
56.52    27
56.54    22
56.56    25
56.58    21
56.6     18
56.62    19
56.64    26
56.66    18
56.68    17
56.7     21
56.72    25
56.74    20
56.76    26
56.78    19
56.8     24
56.82    20
56.84    24
56.86    18
56.88    14
56.9     25
56.92    22
56.94    27
56.96    20
56.98    19
57.0     21
57.02    13
57.04    23
57.06    24
57.08    23
57.1     28
57.12    21
57.14    20
57.16    23
57.18    18
57.2     30
57.22    20
57.24    27
57.26    25
57.28    23
57.3     18
57.32    27
57.34    23
57.36    35
57.38    28
57.4     20
57.42    35
57.44    27
57.46    20
57.48    20
57.5     28
57.52    32
57.54    18
57.56    22
57.58    25
57.6     32
57.62    19
57.64    12
57.66    37
57.68    26
57.7     22
57.72    30
57.74    20
57.76    28
57.78    32
57.8     29
57.82    17
57.84    27
57.86    34
57.88    27
57.9     26
57.92    20
57.94    20
57.96    18
57.98    35
58.0     32
58.02    18
58.04    25
58.06    15
58.08    19
58.1     19
58.12    24
58.14    25
58.16    21
58.18    29
58.2     22
58.22    17
58.24    21
58.26    27
58.28    18
58.3     21
58.32    29
58.34    11
58.36    23
58.38    22
58.4     24
58.42    17
58.44    18
58.46    23
58.48    16
58.5     20
58.52    18
58.54    24
58.56    17
58.58    29
58.6     22
58.62    15
58.64    26
58.66    26
58.68    21
58.7     21
58.72    22
58.74    22
58.76    23
58.78    17
58.8     25
58.82    22
58.84    27
58.86    25
58.88    21
58.9     16
58.92    16
58.94    29
58.96    20
58.98    22
59.0     18
59.02    24
59.04    13
59.06    21
59.08    17
59.1     18
59.12    23
59.14    11
59.16    27
59.18    23
59.2     26
59.22    14
59.24    17
59.26    22
59.28    24
59.3     28
59.32    21
59.34    27
59.36    21
59.38    21
59.4     20
59.42    22
59.44    25
59.46    30
59.48    25
59.5     18
59.52    23
59.54    24
59.56    30
59.58    18
59.6     22
59.62    16
59.64    27
59.66    29
59.68    25
59.7     26
59.72    24
59.74    19
59.76    17
59.78    27
59.8     23
59.82    22
59.84    21
59.86    20
59.88    26
59.9     21
59.92    18
59.94    17
59.96    25
59.98    24
60.0     21
60.02    31
60.04    13
60.06    24
60.08    8
60.1     15
60.12    21
60.14    27
60.16    22
60.18    15
60.2     14
60.22    31
60.24    23
60.26    25
60.28    21
60.3     26
60.32    19
60.34    25
60.36    22
60.38    28
60.4     22
60.42    21
60.44    20
60.46    17
60.48    25
60.5     19
60.52    28
60.54    27
60.56    27
60.58    24
60.6     22
60.62    18
60.64    18
60.66    27
60.68    17
60.7     21
60.72    16
60.74    27
60.76    17
60.78    16
60.8     25
60.82    20
60.84    26
60.86    19
60.88    26
60.9     21
60.92    22
60.94    32
60.96    14
60.98    26
61.0     20
61.02    18
61.04    20
61.06    27
61.08    27
61.1     19
61.12    23
61.14    14
61.16    26
61.18    18
61.2     24
61.22    18
61.24    13
61.26    24
61.28    20
61.3     18
61.32    31
61.34    21
61.36    11
61.38    21
61.4     21
61.42    28
61.44    23
61.46    15
61.48    23
61.5     13
61.52    22
61.54    26
61.56    14
61.58    20
61.6     17
61.62    29
61.64    26
61.66    24
61.68    20
61.7     23
61.72    23
61.74    29
61.76    26
61.78    16
61.8     20
61.82    20
61.84    21
61.86    18
61.88    21
61.9     31
61.92    25
61.94    18
61.96    24
61.98    21
62.0     18
62.02    22
62.04    22
62.06    24
62.08    25
62.1     23
62.12    23
62.14    20
62.16    23
62.18    19
62.2     22
62.22    17
62.24    14
62.26    22
62.28    25
62.3     11
62.32    19
62.34    21
62.36    34
62.38    20
62.4     27
62.42    21
62.44    35
62.46    29
62.48    16
62.5     23
62.52    33
62.54    23
62.56    30
62.58    27
62.6     33
62.62    33
62.64    34
62.66    24
62.68    28
62.7     29
62.72    28
62.74    29
62.76    29
62.78    40
62.8     30
62.82    30
62.84    31
62.86    27
62.88    23
62.9     31
62.92    28
62.94    29
62.96    21
62.98    27
63.0     26
63.02    20
63.04    20
63.06    24
63.08    23
63.1     20
63.12    27
63.14    31
63.16    23
63.18    24
63.2     24
63.22    29
63.24    21
63.26    26
63.28    28
63.3     30
63.32    33
63.34    38
63.36    24
63.38    32
63.4     30
63.42    22
63.44    23
63.46    33
63.48    35
63.5     32
63.52    35
63.54    32
63.56    28
63.58    38
63.6     29
63.62    22
63.64    32
63.66    27
63.68    29
63.7     33
63.72    27
63.74    31
63.76    44
63.78    45
63.8     38
63.82    44
63.84    69
63.86    61
63.88    66
63.9     62
63.92    81
63.94    87
63.96    92
63.98    73
64.0     87
64.02    97
64.04    116
64.06    126
64.08    179
64.1     227
64.12    312
64.14    481
64.16    736
64.18    1202
64.2     1664
64.22    1877
64.24    1843
64.26    1483
64.28    1163
64.3     793
64.32    681
64.34    610
64.36    685
64.38    813
64.4     907
64.42    844
64.44    681
64.46    498
64.48    421
64.5     283
64.52    189
64.54    159
64.56    106
64.58    100
64.6     72
64.62    45
64.64    48
64.66    49
64.68    38
64.7     39
64.72    50
64.74    37
64.76    33
64.78    31
64.8     37
64.82    23
64.84    33
64.86    30
64.88    26
64.9     23
64.92    26
64.94    22
64.96    22
64.98    19
65.0     30
65.02    17
65.04    27
65.06    24
65.08    18
65.1     25
65.12    16
65.14    27
65.16    25
65.18    19
65.2     26
65.22    16
65.24    22
65.26    30
65.28    21
65.3     27
65.32    28
65.34    26
65.36    29
65.38    24
65.4     24
65.42    17
65.44    26
65.46    28
65.48    21
65.5     28
65.52    24
65.54    22
65.56    14
65.58    21
65.6     26
65.62    19
65.64    21
65.66    28
65.68    24
65.7     27
65.72    27
65.74    18
65.76    19
65.78    24
65.8     22
65.82    21
65.84    20
65.86    17
65.88    24
65.9     22
65.92    27
65.94    24
65.96    23
65.98    22
66.0     19
66.02    21
66.04    24
66.06    31
66.08    25
66.1     34
66.12    26
66.14    28
66.16    18
66.18    23
66.2     16
66.22    24
66.24    22
66.26    22
66.28    27
66.3     18
66.32    22
66.34    21
66.36    28
66.38    21
66.4     18
66.42    21
66.44    21
66.46    23
66.48    23
66.5     19
66.52    25
66.54    24
66.56    26
66.58    24
66.6     31
66.62    18
66.64    20
66.66    22
66.68    25
66.7     18
66.72    24
66.74    31
66.76    20
66.78    27
66.8     30
66.82    20
66.84    25
66.86    26
66.88    29
66.9     19
66.92    22
66.94    20
66.96    20
66.98    18
67.0     20
67.02    16
67.04    25
67.06    21
67.08    27
67.1     30
67.12    24
67.14    29
67.16    19
67.18    28
67.2     19
67.22    24
67.24    21
67.26    21
67.28    33
67.3     22
67.32    24
67.34    22
67.36    34
67.38    19
67.4     24
67.42    21
67.44    21
67.46    20
67.48    17
67.5     29
67.52    17
67.54    19
67.56    21
67.58    16
67.6     19
67.62    23
67.64    25
67.66    18
67.68    20
67.7     24
67.72    29
67.74    22
67.76    17
67.78    22
67.8     21
67.82    20
67.84    24
67.86    21
67.88    22
67.9     27
67.92    21
67.94    21
67.96    23
67.98    17
68.0     23
68.02    21
68.04    18
68.06    23
68.08    28
68.1     29
68.12    21
68.14    20
68.16    30
68.18    22
68.2     35
68.22    16
68.24    27
68.26    29
68.28    23
68.3     18
68.32    19
68.34    16
68.36    20
68.38    25
68.4     17
68.42    24
68.44    30
68.46    19
68.48    22
68.5     23
68.52    26
68.54    18
68.56    20
68.58    18
68.6     25
68.62    25
68.64    24
68.66    22
68.68    21
68.7     20
68.72    24
68.74    21
68.76    20
68.78    22
68.8     19
68.82    29
68.84    32
68.86    25
68.88    20
68.9     27
68.92    24
68.94    24
68.96    14
68.98    19
69.0     18
69.02    25
69.04    26
69.06    19
69.08    20
69.1     25
69.12    18
69.14    20
69.16    15
69.18    26
69.2     18
69.22    25
69.24    23
69.26    28
69.28    20
69.3     17
69.32    18
69.34    23
69.36    23
69.38    26
69.4     27
69.42    22
69.44    21
69.46    24
69.48    27
69.5     19
69.52    30
69.54    23
69.56    26
69.58    23
69.6     19
69.62    21
69.64    21
69.66    27
69.68    24
69.7     33
69.72    15
69.74    27
69.76    39
69.78    22
69.8     20
69.82    31
69.84    23
69.86    18
69.88    25
69.9     26
69.92    30
69.94    21
69.96    41
69.98    36
70.0     31
70.02    35
70.04    23
70.06    43
70.08    32
70.1     34
70.12    33
70.14    27
70.16    53
70.18    45
70.2     35
70.22    27
70.24    38
70.26    31
70.28    39
70.3     33
70.32    40
70.34    46
70.36    33
70.38    49
70.4     39
70.42    22
70.44    21
70.46    27
70.48    39
70.5     25
70.52    21
70.54    39
70.56    34
70.58    25
70.6     21
70.62    30
70.64    31
70.66    29
70.68    33
70.7     35
70.72    33
70.74    32
70.76    52
70.78    76
70.8     68
70.82    61
70.84    65
70.86    63
70.88    69
70.9     49
70.92    60
70.94    37
70.96    43
70.98    39
71.0     42
71.02    48
71.04    33
71.06    35
71.08    40
71.1     36
71.12    28
71.14    20
71.16    29
71.18    30
71.2     28
71.22    27
71.24    30
71.26    20
71.28    20
71.3     20
71.32    23
71.34    27
71.36    31
71.38    28
71.4     24
71.42    26
71.44    28
71.46    31
71.48    29
71.5     22
71.52    22
71.54    30
71.56    25
71.58    22
71.6     27
71.62    20
71.64    20
71.66    22
71.68    26
71.7     26
71.72    32
71.74    29
71.76    30
71.78    28
71.8     26
71.82    23
71.84    30
71.86    23
71.88    24
71.9     22
71.92    23
71.94    16
71.96    18
71.98    22
72.0     25
72.02    18
72.04    25
72.06    26
72.08    21
72.1     28
72.12    25
72.14    30
72.16    28
72.18    18
72.2     25
72.22    26
72.24    22
72.26    26
72.28    24
72.3     21
72.32    18
72.34    20
72.36    31
72.38    29
72.4     19
72.42    16
72.44    28
72.46    20
72.48    22
72.5     23
72.52    16
72.54    24
72.56    24
72.58    32
72.6     25
72.62    25
72.64    32
72.66    30
72.68    28
72.7     22
72.72    18
72.74    29
72.76    31
72.78    25
72.8     27
72.82    22
72.84    24
72.86    31
72.88    38
72.9     38
72.92    42
72.94    45
72.96    45
72.98    49
73.0     38
73.02    48
73.04    37
73.06    20
73.08    35
73.1     28
73.12    34
73.14    33
73.16    36
73.18    32
73.2     47
73.22    37
73.24    14
73.26    29
73.28    33
73.3     20
73.32    22
73.34    35
73.36    19
73.38    19
73.4     20
73.42    24
73.44    26
73.46    22
73.48    24
73.5     25
73.52    24
73.54    20
73.56    31
73.58    22
73.6     17
73.62    22
73.64    38
73.66    20
73.68    28
73.7     23
73.72    25
73.74    22
73.76    28
73.78    25
73.8     17
73.82    18
73.84    22
73.86    15
73.88    19
73.9     20
73.92    22
73.94    26
73.96    29
73.98    24
74.0     29
74.02    17
74.04    16
74.06    19
74.08    24
74.1     13
74.12    23
74.14    18
74.16    25
74.18    24
74.2     24
74.22    29
74.24    25
74.26    19
74.28    18
74.3     20
74.32    18
74.34    23
74.36    23
74.38    18
74.4     16
74.42    16
74.44    23
74.46    19
74.48    25
74.5     28
74.52    29
74.54    20
74.56    18
74.58    27
74.6     20
74.62    17
74.64    20
74.66    24
74.68    19
74.7     23
74.72    16
74.74    18
74.76    16
74.78    21
74.8     23
74.82    31
74.84    29
74.86    26
74.88    19
74.9     26
74.92    27
74.94    19
74.96    17
74.98    26
75.0     24
75.02    21
75.04    19
75.06    28
75.08    24
75.1     21
75.12    16
75.14    20
75.16    22
75.18    16
75.2     21
75.22    21
75.24    15
75.26    25
75.28    15
75.3     26
75.32    20
75.34    14
75.36    21
75.38    24
75.4     24
75.42    24
75.44    18
75.46    18
75.48    18
75.5     16
75.52    29
75.54    26
75.56    21
75.58    26
75.6     15
75.62    20
75.64    24
75.66    17
75.68    13
75.7     25
75.72    30
75.74    19
75.76    20
75.78    16
75.8     26
75.82    20
75.84    26
75.86    31
75.88    32
75.9     26
75.92    25
75.94    23
75.96    31
75.98    15
76.0     29
76.02    21
76.04    22
76.06    19
76.08    19
76.1     17
76.12    18
76.14    25
76.16    21
76.18    24
76.2     24
76.22    20
76.24    20
76.26    16
76.28    31
76.3     21
76.32    21
76.34    17
76.36    17
76.38    29
76.4     25
76.42    19
76.44    14
76.46    18
76.48    22
76.5     27
76.52    18
76.54    30
76.56    19
76.58    28
76.6     17
76.62    18
76.64    22
76.66    24
76.68    23
76.7     28
76.72    19
76.74    23
76.76    28
76.78    30
76.8     25
76.82    22
76.84    23
76.86    25
76.88    26
76.9     25
76.92    24
76.94    33
76.96    27
76.98    20
77.0     22
77.02    28
77.04    35
77.06    19
77.08    19
77.1     26
77.12    23
77.14    23
77.16    16
77.18    24
77.2     32
77.22    19
77.24    18
77.26    26
77.28    23
77.3     21
77.32    21
77.34    17
77.36    15
77.38    19
77.4     17
77.42    32
77.44    24
77.46    21
77.48    13
77.5     29
77.52    31
77.54    15
77.56    22
77.58    22
77.6     27
77.62    24
77.64    19
77.66    15
77.68    28
77.7     22
77.72    25
77.74    29
77.76    19
77.78    17
77.8     17
77.82    21
77.84    18
77.86    17
77.88    28
77.9     26
77.92    15
77.94    21
77.96    21
77.98    22
78.0     24
78.02    26
78.04    23
78.06    24
78.08    21
78.1     20
78.12    23
78.14    20
78.16    24
78.18    18
78.2     25
78.22    28
78.24    32
78.26    21
78.28    19
78.3     21
78.32    15
78.34    21
78.36    27
78.38    19
78.4     19
78.42    20
78.44    19
78.46    19
78.48    24
78.5     21
78.52    22
78.54    26
78.56    17
78.58    27
78.6     14
78.62    10
78.64    23
78.66    23
78.68    21
78.7     22
78.72    20
78.74    15
78.76    27
78.78    24
78.8     24
78.82    20
78.84    26
78.86    28
78.88    21
78.9     35
78.92    20
78.94    17
78.96    22
78.98    13
79.0     22
79.02    24
79.04    23
79.06    21
79.08    27
79.1     29
79.12    27
79.14    30
79.16    19
79.18    33
79.2     20
79.22    28
79.24    23
79.26    27
79.28    16
79.3     26
79.32    31
79.34    24
79.36    20
79.38    18
79.4     21
79.42    38
79.44    25
79.46    35
79.48    18
79.5     27
79.52    24
79.54    23
79.56    28
79.58    25
79.6     29
79.62    15
79.64    39
79.66    21
79.68    30
79.7     25
79.72    17
79.74    32
79.76    20
79.78    19
79.8     27
79.82    32
79.84    24
79.86    21
79.88    28
79.9     27
79.92    26
79.94    25
79.96    18
79.98    18
80.0     19
80.02    22
80.04    28
80.06    21
80.08    22
80.1     22
80.12    27
80.14    25
80.16    29
80.18    31
80.2     26
80.22    23
80.24    22
80.26    21
80.28    24
80.3     16
80.32    30
80.34    21
80.36    23
80.38    20
80.4     22
80.42    27
80.44    29
80.46    28
80.48    25
80.5     26
80.52    26
80.54    33
80.56    35
80.58    34
80.6     34
80.62    25
80.64    20
80.66    26
80.68    37
80.7     40
80.72    33
80.74    41
80.76    34
80.78    46
80.8     44
80.82    44
80.84    56
80.86    52
80.88    55
80.9     49
80.92    72
80.94    69
80.96    65
80.98    82
81.0     77
81.02    83
81.04    74
81.06    108
81.08    107
81.1     116
81.12    150
81.14    188
81.16    226
81.18    297
81.2     452
81.22    577
81.24    749
81.26    934
81.28    1057
81.3     1132
81.32    1193
81.34    1075
81.36    973
81.38    861
81.4     707
81.42    570
81.44    479
81.46    453
81.48    449
81.5     552
81.52    555
81.54    604
81.56    583
81.58    563
81.6     525
81.62    383
81.64    383
81.66    272
81.68    206
81.7     191
81.72    138
81.74    107
81.76    71
81.78    79
81.8     61
81.82    78
81.84    57
81.86    53
81.88    51
81.9     52
81.92    44
81.93    46
81.96    37
81.98    45
82.0     32
82.02    33
82.04    25
82.06    25
82.08    29
82.1     35
82.12    29
82.14    29
82.16    36
82.18    28
82.2     33
82.22    25
82.24    24
82.26    26
82.28    23
82.3     23
82.32    23
82.34    21
82.36    26
82.38    24
82.4     29
82.42    22
82.43    15
82.46    23
82.48    27
82.5     21
82.52    29
82.54    22
82.56    22
82.58    22
82.6     26
82.62    20
82.64    27
82.66    22
82.68    23
82.7     20
82.72    21
82.74    25
82.76    31
82.78    30
82.8     28
82.82    20
82.84    27
82.86    22
82.88    20
82.9     23
82.92    20
82.93    18
82.96    23
82.98    26
83.0     21
83.02    21
83.04    17
83.06    22
83.08    29
83.1     21
83.12    19
83.14    15
83.16    29
83.18    19
83.2     20
83.22    18
83.24    21
83.26    19
83.28    35
83.3     24
83.32    21
83.34    22
83.36    23
83.38    23
83.4     22
83.42    18
83.43    27
83.46    31
83.48    29
83.5     15
83.52    22
83.54    15
83.56    16
83.58    21
83.6     31
83.62    19
83.64    19
83.66    26
83.68    31
83.7     15
83.72    22
83.74    21
83.76    23
83.78    28
83.8     15
83.82    22
83.84    20
83.86    13
83.88    26
83.9     19
83.92    22
83.93    24
83.96    26
83.98    24
84.0     22
84.02    17
84.04    15
84.06    20
84.08    35
84.1     19
84.12    15
84.14    22
84.16    15
84.18    19
84.2     31
84.22    24
84.24    17
84.26    19
84.28    22
84.3     24
84.32    20
84.34    29
84.36    24
84.38    28
84.4     22
84.42    23
84.43    19
84.46    13
84.48    24
84.5     24
84.52    25
84.54    33
84.56    17
84.58    31
84.6     25
84.62    15
84.64    29
84.66    28
84.68    23
84.7     26
84.72    21
84.74    37
84.76    28
84.78    24
84.8     24
84.82    35
84.84    27
84.86    22
84.88    18
84.9     24
84.92    25
84.93    19
84.96    33
84.98    28
85.0     28
85.02    22
85.04    28
85.06    30
85.08    26
85.1     23
85.12    21
85.14    25
85.16    21
85.18    18
85.2     21
85.22    19
85.24    26
85.26    26
85.28    22
85.3     19
85.32    28
85.34    29
85.36    22
85.38    19
85.4     19
85.42    20
85.43    23
85.46    25
85.48    25
85.5     20
85.52    15
85.54    17
85.56    23
85.58    27
85.6     26
85.62    25
85.64    11
85.66    20
85.68    23
85.7     29
85.72    27
85.74    31
85.76    20
85.78    23
85.8     24
85.82    24
85.84    29
85.86    17
85.88    17
85.9     23
85.92    18
85.93    22
85.96    15
85.98    18
86.0     27
86.02    24
86.04    20
86.06    23
86.08    20
86.1     11
86.12    18
86.14    17
86.16    22
86.18    23
86.2     21
86.22    22
86.24    15
86.26    29
86.28    24
86.3     24
86.32    26
86.34    22
86.36    19
86.38    24
86.4     17
86.42    27
86.43    22
86.46    15
86.48    22
86.5     24
86.52    32
86.54    20
86.56    29
86.58    27
86.6     13
86.62    16
86.64    25
86.66    23
86.68    22
86.7     23
86.72    21
86.74    21
86.76    19
86.78    18
86.8     19
86.82    18
86.84    16
86.86    25
86.88    20
86.9     24
86.92    16
86.93    23
86.96    26
86.98    26
87.0     19
87.02    27
87.04    27
87.06    30
87.08    24
87.1     22
87.12    26
87.14    27
87.16    13
87.18    33
87.2     18
87.22    21
87.24    32
87.26    25
87.28    26
87.3     34
87.32    30
87.34    43
87.36    64
87.38    49
87.4     51
87.42    47
87.43    58
87.46    69
87.48    54
87.5     47
87.52    37
87.54    40
87.56    34
87.58    36
87.6     45
87.62    38
87.64    33
87.66    41
87.68    43
87.7     37
87.72    31
87.74    42
87.76    35
87.78    45
87.8     28
87.82    38
87.84    27
87.86    29
87.88    21
87.9     22
87.92    14
87.93    26
87.96    22
87.98    34
88.0     24
88.02    26
88.04    36
88.06    19
88.08    34
88.1     17
88.12    26
88.14    21
88.16    17
88.18    15
88.2     15
88.22    19
88.24    19
88.26    24
88.28    17
88.3     20
88.32    22
88.34    25
88.36    26
88.38    18
88.4     23
88.42    19
88.43    25
88.46    22
88.48    16
88.5     27
88.52    21
88.54    26
88.56    28
88.58    31
88.6     23
88.62    25
88.64    14
88.66    22
88.68    16
88.7     26
88.72    24
88.74    26
88.76    18
88.78    21
88.8     23
88.82    31
88.84    24
88.86    20
88.88    21
88.9     15
88.92    22
88.93    23
88.96    27
88.98    16
89.0     23
89.02    25
89.04    30
89.06    19
89.08    17
89.1     24
89.12    19
89.14    14
89.16    21
89.18    24
89.2     20
89.22    20
89.24    29
89.26    28
89.28    27
89.3     21
89.32    24
89.34    30
89.36    28
89.38    23
89.4     26
89.42    24
89.43    33
89.46    20
89.48    25
89.5     22
89.52    26
89.54    16
89.56    18
89.58    24
89.6     29
89.62    26
89.64    22
89.66    23
89.68    17
89.7     20
89.72    21
89.74    26
89.76    28
89.78    22
89.8     20
89.82    20
89.84    14
89.86    25
89.88    16
89.9     28
89.92    21
89.93    19
89.96    14
89.98    15
90.0     13
90.02    33
90.04    18
90.06    17
90.08    34
90.1     21
90.12    29
90.14    20
90.16    23
90.18    22
90.2     31
90.22    30
90.24    22
90.26    24
90.28    28
90.3     20
90.32    15
90.34    21
90.36    21
90.38    23
90.4     18
90.42    25
90.43    21
90.46    31
90.48    27
90.5     25
90.52    25
90.54    26
90.56    19
90.58    14
90.6     33
90.62    22
90.64    19
90.66    17
90.68    22
90.7     21
90.72    17
90.74    19
90.76    18
90.78    23
90.8     17
90.82    27
90.84    19
90.86    27
90.88    16
90.9     19
90.92    22
90.93    20
90.96    23
90.98    27
91.0     28
91.02    19
91.04    21
91.06    14
91.08    20
91.1     21
91.12    23
91.14    22
91.16    18
91.18    22
91.2     16
91.22    25
91.24    25
91.26    26
91.28    25
91.3     28
91.32    19
91.34    21
91.36    26
91.38    19
91.4     20
91.42    22
91.43    28
91.46    19
91.48    23
91.5     24
91.52    20
91.54    27
91.56    11
91.58    22
91.6     24
91.62    28
91.64    23
91.66    22
91.68    14
91.7     20
91.72    16
91.74    25
91.76    21
91.78    19
91.8     21
91.82    27
91.84    21
91.86    22
91.88    28
91.9     25
91.92    22
91.93    23
91.96    22
91.98    22
92.0     24
92.02    26
92.04    31
92.06    22
92.08    18
92.1     20
92.12    21
92.14    24
92.16    25
92.18    17
92.2     18
92.22    19
92.24    26
92.26    28
92.28    17
92.3     23
92.32    19
92.34    21
92.36    30
92.38    24
92.4     25
92.42    21
92.43    20
92.46    20
92.48    16
92.5     30
92.52    19
92.54    21
92.56    19
92.58    33
92.6     25
92.62    23
92.64    25
92.66    25
92.68    20
92.7     20
92.72    26
92.74    18
92.76    24
92.78    26
92.8     22
92.82    17
92.84    18
92.86    31
92.88    17
92.9     17
92.92    27
92.93    17
92.96    17
92.98    19
93.0     18
93.02    20
93.04    26
93.06    23
93.08    27
93.1     21
93.12    25
93.14    22
93.16    21
93.18    33
93.2     23
93.22    23
93.24    25
93.26    27
93.28    16
93.3     21
93.32    18
93.34    18
93.36    15
93.38    30
93.4     23
93.42    28
93.43    29
93.46    19
93.48    23
93.5     19
93.52    16
93.54    19
93.56    29
93.58    33
93.6     26
93.62    22
93.64    24
93.66    31
93.68    24
93.7     20
93.72    27
93.74    21
93.76    29
93.78    24
93.8     22
93.82    24
93.84    26
93.86    24
93.88    18
93.9     26
93.92    22
93.93    23
93.96    22
93.98    27
94.0     19
94.02    21
94.04    17
94.06    18
94.08    11
94.1     19
94.12    21
94.14    22
94.16    19
94.18    27
94.2     28
94.22    24
94.24    12
94.26    24
94.28    26
94.3     12
94.32    25
94.34    25
94.36    17
94.38    30
94.4     18
94.42    26
94.43    21
94.46    22
94.48    24
94.5     25
94.52    23
94.54    15
94.56    19
94.58    28
94.6     22
94.62    30
94.64    15
94.66    22
94.68    30
94.7     20
94.72    22
94.74    18
94.76    23
94.78    27
94.8     22
94.82    26
94.84    25
94.86    26
94.88    32
94.9     21
94.92    22
94.93    24
94.96    14
94.98    18
95.0     20
95.02    20
95.04    13
95.06    19
95.08    16
95.1     20
95.12    22
95.14    21
95.16    24
95.18    16
95.2     17
95.22    17
95.24    25
95.25    14
95.28    29
95.3     18
95.32    14
95.34    35
95.36    28
95.38    22
95.4     17
95.42    33
95.43    20
95.46    28
95.48    22
95.5     29
95.52    20
95.54    26
95.56    21
95.58    17
95.6     23
95.62    21
95.64    25
95.66    23
95.68    34
95.7     28
95.72    19
95.74    22
95.75    20
95.78    21
95.8     25
95.82    24
95.84    14
95.86    23
95.88    20
95.9     24
95.92    25
95.93    22
95.96    28
95.98    21
96.0     30
96.02    23
96.04    30
96.06    15
96.08    19
96.1     23
96.12    29
96.14    30
96.16    30
96.18    28
96.2     21
96.22    29
96.24    30
96.25    28
96.28    18
96.3     33
96.32    27
96.34    25
96.36    27
96.38    23
96.4     32
96.42    29
96.43    39
96.46    21
96.48    28
96.5     23
96.52    26
96.54    13
96.56    22
96.58    16
96.6     27
96.62    13
96.64    17
96.66    27
96.68    18
96.7     22
96.72    31
96.74    31
96.75    23
96.78    23
96.8     24
96.82    32
96.84    24
96.86    34
96.88    29
96.9     28
96.92    33
96.93    24
96.96    22
96.98    21
97.0     32
97.02    34
97.04    38
97.06    31
97.08    28
97.1     22
97.12    47
97.14    29
97.16    41
97.18    34
97.2     34
97.22    41
97.24    38
97.25    35
97.28    49
97.3     45
97.32    31
97.34    46
97.36    53
97.38    50
97.4     70
97.42    75
97.43    90
97.46    104
97.48    119
97.5     152
97.52    206
97.54    281
97.56    295
97.58    372
97.6     445
97.62    432
97.64    466
97.66    428
97.68    406
97.7     327
97.72    286
97.74    256
97.75    190
97.78    195
97.8     181
97.82    161
97.84    146
97.86    157
97.88    187
97.9     189
97.92    175
97.93    231
97.96    218
97.98    205
98.0     188
98.02    181
98.04    156
98.06    151
98.08    115
98.1     97
98.12    77
98.14    89
98.16    64
98.18    57
98.2     50
98.22    49
98.24    46
98.25    32
98.28    35
98.3     24
98.32    43
98.34    21
98.36    33
98.38    41
98.4     29
98.42    25
98.43    27
98.46    31
98.48    25
98.5     31
98.52    27
98.54    35
98.56    25
98.58    29
98.6     28
98.62    24
98.64    26
98.66    24
98.68    27
98.7     28
98.72    24
98.74    25
98.75    41
98.78    23
98.8     24
98.82    28
98.84    18
98.86    21
98.88    15
98.9     29
98.92    18
98.93    15
98.96    19
98.98    25
99.0     24
99.02    28
99.04    23
99.06    20
99.08    25
99.1     23
99.12    30
99.14    22
99.16    20
99.18    22
99.2     25
99.22    22
99.24    22
99.25    24
99.28    21
99.3     32
99.32    29
99.34    25
99.36    25
99.38    28
99.4     17
99.42    20
99.43    28
99.46    21
99.48    24
99.5     15
99.52    21
99.54    27
99.56    24
99.58    34
99.6     30
99.62    22
99.64    26
99.66    17
99.68    25
99.7     26
99.72    27
99.74    22
99.75    21
99.78    25
99.8     24
99.82    23
99.84    25
99.86    20
99.88    33
99.9     18
99.92    30
99.93    20
99.96    28
99.98    21
100.0    25
100.02   19
100.04   25
100.06   28
100.08   19
100.1    21
100.12   25
100.14   18
100.16   25
100.18   19
100.2    26
100.22   25
100.24   28
100.26   11
100.28   33
100.3    19
100.32   16
100.34   26
100.36   22
100.38   22
100.4    27
100.42   17
100.44   18
100.46   18
100.48   24
100.5    18
100.52   19
100.54   20
100.56   25
100.58   23
100.6    32
100.62   30
100.64   23
100.66   22
100.68   26
100.7    26
100.72   17
100.74   24
100.76   18
100.78   21
100.8    25
100.82   23
100.84   24
100.86   29
100.88   22
100.9    19
100.92   32
100.94   20
100.96   30
100.98   25
101.0    28
101.02   21
101.04   26
101.06   24
101.08   31
101.1    27
101.12   21
101.14   17
101.16   16
101.18   23
101.2    23
101.22   20
101.24   25
101.26   27
101.28   18
101.3    29
101.32   28
101.34   23
101.36   22
101.38   21
101.4    22
101.42   16
101.44   28
101.46   21
101.48   34
101.5    17
101.52   30
101.54   25
101.56   25
101.58   29
101.6    25
101.62   22
101.64   20
101.66   35
101.68   21
101.7    22
101.72   19
101.74   20
101.76   33
101.78   25
101.8    27
101.82   26
101.84   28
101.86   23
101.88   27
101.9    20
101.92   17
101.94   23
101.96   21
101.98   26
102.0    18
102.02   20
102.04   27
102.06   26
102.08   22
102.1    18
102.12   19
102.14   22
102.16   20
102.18   22
102.2    21
102.22   27
102.24   25
102.26   23
102.28   20
102.3    22
102.32   27
102.34   33
102.36   18
102.38   26
102.4    26
102.42   10
102.44   26
102.46   23
102.48   21
102.5    21
102.52   25
102.54   18
102.56   27
102.58   28
102.6    21
102.62   22
102.64   25
102.66   13
102.68   16
102.7    27
102.72   21
102.74   28
102.76   31
102.78   28
102.8    18
102.82   23
102.84   24
102.86   18
102.88   27
102.9    23
102.92   26
102.94   32
102.96   23
102.98   18
103.0    25
103.02   21
103.04   25
103.06   20
103.08   26
103.1    19
103.12   26
103.14   20
103.16   25
103.18   20
103.2    30
103.22   31
103.24   25
103.26   25
103.28   38
103.3    24
103.32   25
103.34   20
103.36   28
103.38   17
103.4    41
103.42   31
103.44   25
103.46   22
103.48   26
103.5    21
103.52   21
103.54   26
103.56   25
103.58   21
103.6    30
103.62   29
103.64   28
103.66   31
103.68   34
103.7    40
103.72   33
103.74   45
103.76   65
103.78   77
103.8    64
103.82   60
103.84   62
103.86   67
103.88   58
103.9    68
103.92   59
103.94   48
103.96   36
103.98   38
104.0    31
104.02   31
104.04   32
104.06   29
104.08   47
104.1    34
104.12   35
104.14   35
104.16   49
104.18   59
104.2    37
104.22   46
104.24   34
104.26   42
104.28   36
104.3    36
104.32   34
104.34   41
104.36   35
104.38   30
104.4    32
104.42   27
104.44   26
104.46   29
104.48   28
104.5    29
104.52   36
104.54   28
104.56   18
104.58   18
104.6    32
104.62   25
104.64   20
104.66   24
104.68   24
104.7    27
104.72   27
104.74   28
104.76   13
104.78   22
104.8    19
104.82   26
104.84   32
104.86   23
104.88   35
104.9    23
104.92   24
104.94   30
104.96   23
104.98   28
105.0    18
105.02   21
105.04   19
105.06   24
105.08   22
105.1    24
105.12   23
105.14   23
105.16   22
105.18   37
105.2    26
105.22   27
105.24   29
105.26   26
105.28   21
105.3    21
105.32   28
105.34   19
105.36   21
105.38   28
105.4    25
105.42   22
105.44   29
105.46   19
105.48   27
105.5    20
105.52   20
105.54   16
105.56   19
105.58   25
105.6    27
105.62   26
105.64   32
105.66   20
105.68   22
105.7    25
105.72   27
105.74   25
105.76   27
105.78   27
105.8    26
105.82   21
105.84   22
105.86   22
105.88   37
105.9    40
105.92   31
105.94   35
105.96   24
105.98   36
106.0    21
106.02   44
106.04   35
106.06   36
106.08   38
106.1    29
106.12   27
106.14   30
106.16   33
106.18   23
106.2    28
106.22   20
106.24   28
106.26   23
106.28   26
106.3    32
106.32   20
106.34   26
106.36   17
106.38   28
106.4    31
106.42   37
106.44   22
106.46   19
106.48   23
106.5    27
106.52   21
106.54   16
106.56   26
106.58   20
106.6    27
106.62   20
106.64   21
106.66   29
106.68   29
106.7    14
106.72   34
106.74   22
106.76   19
106.78   23
106.8    23
106.82   25
106.84   18
106.86   27
106.88   20
106.9    23
106.92   31
106.94   21
106.96   19
106.98   28
107.0    29
107.02   35
107.04   15
107.06   17
107.08   29
107.1    25
107.12   24
107.14   16
107.16   30
107.18   15
107.2    30
107.22   17
107.24   29
107.26   23
107.28   28
107.3    22
107.32   18
107.34   31
107.36   30
107.38   20
107.4    15
107.42   24
107.44   18
107.46   21
107.48   24
107.5    16
107.52   24
107.54   27
107.56   19
107.58   23
107.6    26
107.62   27
107.64   26
107.66   30
107.68   25
107.7    25
107.72   19
107.74   24
107.76   19
107.78   26
107.8    35
107.82   19
107.84   27
107.86   24
107.88   19
107.9    24
107.92   26
107.94   26
107.96   19
107.98   23
108.0    24
108.02   23
108.04   23
108.06   20
108.08   21
108.1    31
108.12   32
108.14   23
108.16   15
108.18   17
108.2    24
108.22   32
108.24   20
108.26   19
108.28   21
108.3    35
108.32   36
108.34   28
108.36   19
108.38   29
108.4    28
108.42   27
108.44   18
108.46   24
108.48   25
108.5    25
108.52   21
108.54   20
108.56   29
108.58   18
108.6    34
108.62   22
108.64   21
108.66   21
108.68   21
108.7    31
108.72   16
108.74   20
108.76   18
108.78   21
108.8    23
108.82   25
108.84   28
108.86   27
108.88   24
108.9    22
108.92   23
108.94   30
108.96   24
108.98   27
109.0    26
109.02   25
109.04   33
109.06   19
109.08   31
109.1    26
109.12   18
109.14   38
109.16   24
109.18   25
109.2    23
109.22   32
109.24   17
109.26   26
109.28   26
109.3    22
109.32   27
109.34   30
109.36   28
109.38   20
109.4    25
109.42   16
109.44   27
109.46   33
109.48   18
109.5    26
109.52   26
109.54   21
109.56   20
109.58   29
109.6    34
109.62   21
109.64   35
109.66   21
109.68   33
109.7    25
109.72   23
109.74   28
109.76   32
109.78   31
109.8    30
109.82   36
109.84   27
109.86   30
109.88   31
109.9    27
109.92   27
109.94   30
109.96   24
109.98   27
110.0    35
110.02   26
110.04   26
110.06   22
110.08   37
110.1    24
110.12   14
110.14   29
110.16   22
110.18   34
110.2    35
110.22   20
110.24   31
110.26   24
110.28   20
110.3    21
110.32   22
110.34   36
110.36   26
110.38   35
110.4    19
110.42   30
110.44   27
110.46   27
110.48   34
110.5    31
110.52   23
110.54   36
110.56   21
110.58   29
110.6    40
110.62   38
110.64   31
110.66   21
110.68   33
110.7    24
110.72   17
110.74   28
110.76   34
110.78   28
110.8    31
110.82   34
110.84   25
110.86   25
110.88   27
110.9    25
110.92   35
110.94   31
110.96   22
110.98   29
111.0    30
111.02   27
111.04   26
111.06   34
111.08   23
111.1    27
111.12   24
111.14   27
111.16   27
111.18   26
111.2    29
111.22   24
111.24   23
111.26   27
111.28   18
111.3    27
111.32   25
111.34   24
111.36   24
111.38   21
111.4    22
111.42   28
111.44   29
111.46   35
111.48   25
111.5    35
111.52   21
111.54   27
111.56   23
111.58   36
111.6    32
111.62   24
111.64   22
111.66   40
111.68   22
111.7    22
111.72   24
111.74   26
111.76   25
111.78   35
111.8    31
111.82   25
111.84   32
111.86   27
111.88   22
111.9    30
111.92   22
111.94   29
111.96   28
111.98   14
112.0    18
112.02   27
112.04   26
112.06   21
112.08   31
112.1    25
112.12   26
112.14   31
112.16   24
112.18   24
112.2    28
112.22   25
112.24   26
112.26   24
112.28   22
112.3    29
112.32   25
112.34   24
112.36   28
112.38   27
112.4    22
112.42   30
112.44   35
112.46   26
112.48   34
112.5    28
112.52   25
112.54   28
112.56   30
112.58   26
112.6    24
112.62   29
112.64   27
112.66   31
112.68   26
112.7    33
112.72   23
112.74   25
112.76   32
112.78   25
112.8    29
112.82   38
112.84   29
112.86   27
112.88   17
112.9    23
112.92   35
112.94   30
112.96   42
112.98   23
113.0    28
113.02   28
113.04   29
113.06   26
113.08   29
113.1    33
113.12   23
113.14   28
113.16   25
113.18   32
113.2    23
113.22   27
113.24   28
113.26   31
113.28   30
113.3    30
113.32   27
113.34   34
113.36   29
113.38   25
113.4    34
113.42   30
113.44   32
113.46   29
113.48   34
113.5    27
113.52   29
113.54   44
113.56   36
113.58   28
113.6    43
113.62   30
113.64   42
113.66   26
113.68   38
113.7    37
113.72   44
113.74   46
113.76   24
113.78   53
113.8    39
113.82   40
113.84   37
113.86   34
113.88   40
113.9    51
113.92   36
113.94   41
113.96   33
113.98   46
114.0    53
114.02   61
114.04   45
114.06   61
114.08   52
114.1    61
114.12   49
114.14   57
114.16   61
114.18   62
114.2    54
114.22   67
114.24   71
114.26   91
114.28   90
114.3    87
114.32   103
114.34   105
114.36   141
114.38   142
114.4    155
114.42   187
114.44   247
114.46   289
114.48   393
114.5    378
114.52   503
114.54   550
114.56   618
114.58   638
114.6    651
114.62   668
114.64   680
114.66   659
114.68   625
114.7    503
114.72   535
114.74   426
114.76   414
114.78   346
114.8    291
114.82   306
114.84   245
114.86   228
114.88   233
114.9    217
114.92   249
114.94   264
114.96   259
114.98   296
115.0    328
115.02   323
115.04   340
115.06   342
115.08   342
115.1    317
115.12   292
115.14   281
115.16   273
115.18   231
115.2    197
115.22   185
115.24   172
115.26   129
115.28   124
115.3    118
115.32   97
115.34   84
115.36   90
115.38   70
115.4    70
115.42   72
115.44   49
115.46   46
115.48   43
115.5    53
115.52   48
115.54   38
115.56   38
115.58   41
115.6    28
115.62   51
115.64   42
115.66   35
115.68   44
115.7    30
115.72   30
115.74   35
115.76   34
115.78   31
115.8    29
115.82   35
115.84   34
115.86   20
115.88   22
115.9    31
115.92   36
115.94   31
115.96   40
115.98   31
116.0    30
116.02   26
116.04   27
116.06   26
116.08   37
116.1    31
116.12   34
116.14   19
116.16   31
116.18   37
116.2    39
116.22   38
116.24   31
116.26   25
116.28   26
116.3    35
116.32   29
116.34   26
116.36   24
116.38   23
116.4    36
116.42   25
116.44   26
116.46   23
116.48   37
116.5    24
116.52   29
116.54   32
116.56   26
116.58   29
116.6    32
116.62   33
116.64   30
116.66   34
116.68   30
116.7    24
116.72   23
116.74   26
116.76   15
116.78   17
116.8    32
116.82   32
116.84   25
116.86   22
116.88   22
116.9    21
116.92   23
116.94   31
116.96   28
116.98   26
117.0    22
117.02   38
117.04   23
117.06   25
117.08   25
117.1    24
117.12   21
117.14   21
117.16   28
117.18   34
117.2    23
117.22   26
117.24   30
117.26   28
117.28   21
117.3    29
117.32   27
117.34   27
117.36   28
117.38   21
117.4    23
117.42   25
117.44   30
117.46   26
117.48   31
117.5    31
117.52   18
117.54   36
117.56   24
117.58   20
117.6    31
117.62   28
117.64   23
117.66   29
117.68   19
117.7    34
117.72   32
117.74   23
117.76   33
117.78   31
117.8    23
117.82   32
117.84   27
117.86   31
117.88   24
117.9    23
117.92   30
117.94   20
117.96   34
117.98   22
118.0    28
118.02   29
118.04   29
118.06   29
118.08   28
118.1    28
118.12   25
118.14   34
118.16   20
118.18   27
118.2    28
118.22   25
118.24   33
118.26   25
118.28   37
118.3    28
118.32   26
118.34   32
118.36   29
118.38   33
118.4    24
118.42   31
118.44   31
118.46   21
118.48   26
118.5    29
118.52   18
118.54   19
118.56   30
118.58   31
118.6    43
118.62   26
118.64   27
118.66   26
118.68   29
118.7    28
118.72   44
118.74   31
118.76   30
118.78   24
118.8    26
118.82   23
118.84   27
118.86   21
118.88   17
118.9    35
118.92   23
118.94   31
118.96   27
118.98   23
119.0    27
119.02   27
119.04   18
119.06   24
119.08   37
119.1    24
119.12   29
119.14   24
119.16   17
119.18   27
119.2    21
119.22   23
119.24   26
119.26   31
119.28   27
119.3    23
119.32   18
119.34   25
119.36   27
119.38   21
119.4    23
119.42   23
119.44   29
119.46   27
119.48   37
119.5    26
119.52   30
119.54   27
119.56   27
119.58   27
119.6    23
119.62   26
119.64   27
119.66   19
119.68   35
119.7    24
119.72   27
119.74   28
119.76   22
119.78   21
119.8    19
119.82   27
119.84   37
119.86   18
119.88   20
119.9    28
119.92   26
119.94   20
119.96   25
119.98   28
120.0    23
120.02   24
120.04   23
120.06   20
120.08   21
120.1    27
120.12   29
120.14   33
120.16   33
120.18   30
120.2    29
120.22   26
120.24   24
120.26   23
120.28   18
120.3    28
120.32   19
120.34   19
120.36   16
120.38   28
120.4    19
120.42   26
120.44   32
120.46   25
120.48   23
120.5    32
120.52   19
120.54   26
120.56   28
120.58   26
120.6    37
120.62   32
120.64   25
120.66   33
120.68   28
120.7    20
120.72   21
120.74   26
120.76   31
120.78   25
120.8    25
120.82   19
120.84   21
120.86   27
120.88   31
120.9    16
120.92   33
120.94   20
120.96   24
120.98   22
121.0    27
121.02   18
121.04   27
121.06   33
121.08   20
121.1    27
121.12   30
121.14   21
121.16   31
121.18   25
121.2    25
121.22   31
121.24   21
121.26   20
121.28   34
121.3    32
121.32   22
121.34   32
121.36   30
121.38   32
121.4    48
121.42   30
121.44   39
121.46   55
121.48   40
121.5    41
121.52   38
121.54   52
121.56   46
121.58   48
121.6    40
121.62   52
121.64   32
121.66   30
121.68   40
121.7    25
121.72   30
121.74   21
121.76   33
121.78   27
121.8    36
121.82   35
121.84   30
121.86   25
121.88   38
121.9    30
121.92   41
121.94   31
121.96   38
121.98   29
122.0    36
122.02   38
122.04   30
122.06   36
122.08   34
122.1    23
122.12   36
122.14   17
122.16   33
122.18   42
122.2    41
122.22   24
122.24   35
122.26   32
122.28   27
122.3    25
122.32   33
122.34   19
122.36   25
122.38   33
122.4    25
122.42   36
122.44   29
122.46   28
122.48   22
122.5    27
122.52   31
122.54   21
122.56   19
122.58   27
122.6    22
122.62   36
122.64   25
122.66   26
122.68   24
122.7    25
122.72   31
122.74   30
122.76   27
122.78   31
122.8    22
122.82   22
122.84   25
122.86   21
122.88   28
122.9    19
122.92   26
122.94   30
122.96   35
122.98   27
123.0    28
123.02   31
123.04   22
123.06   27
123.08   23
123.1    24
123.12   29
123.14   31
123.16   35
123.18   30
123.2    30
123.22   34
123.24   27
123.26   26
123.28   26
123.3    29
123.32   30
123.34   25
123.36   30
123.38   32
123.4    27
123.42   30
123.44   23
123.46   26
123.48   35
123.5    30
123.52   29
123.54   24
123.56   18
123.58   27
123.6    26
123.62   29
123.64   29
123.66   35
123.68   23
123.7    35
123.72   38
123.74   31
123.76   20
123.78   33
123.8    22
123.82   27
123.84   35
123.86   35
123.88   33
123.9    34
123.92   37
123.94   35
123.96   42
123.98   23
124.0    43
124.02   37
124.04   25
124.06   32
124.08   24
124.1    31
124.12   35
124.14   35
124.16   32
124.18   20
124.2    34
124.22   30
124.24   22
124.26   30
124.28   34
124.3    27
124.32   23
124.34   30
124.36   29
124.38   27
124.4    33
124.42   34
124.44   31
124.46   29
124.48   34
124.5    35
124.52   35
124.54   27
124.56   34
124.58   31
124.6    32
124.62   36
124.64   34
124.66   22
124.68   39
124.7    23
124.72   22
124.74   36
124.76   28
124.78   26
124.8    33
124.82   34
124.84   26
124.86   26
124.88   25
124.9    32
124.92   32
124.94   25
124.96   17
124.98   25
125.0    35
125.02   26
125.04   38
125.06   27
125.08   32
125.1    31
125.12   29
125.14   31
125.16   31
125.18   33
125.2    25
125.22   27
125.24   26
125.26   33
125.28   30
125.3    21
125.32   26
125.34   24
125.36   27
125.38   28
125.4    28
125.42   30
125.44   33
125.46   21
125.48   25
125.5    37
125.52   30
125.54   27
125.56   28
125.58   26
125.6    31
125.62   24
125.64   24
125.66   23
125.68   28
125.7    31
125.72   31
125.74   33
125.76   20
125.78   30
125.8    33
125.82   41
125.84   21
125.86   24
125.88   37
125.9    28
125.92   32
125.94   33
125.96   36
125.98   30
126.0    28
126.02   29
126.04   24
126.06   25
126.08   28
126.1    24
126.12   23
126.14   27
126.16   34
126.18   25
126.2    38
126.22   22
126.24   30
126.26   33
126.28   27
126.3    33
126.32   29
126.34   24
126.36   34
126.38   19
126.4    36
126.42   33
126.44   44
126.46   34
126.48   27
126.5    27
126.52   32
126.54   33
126.56   27
126.58   28
126.6    18
126.62   29
126.64   18
126.66   26
126.68   25
126.7    21
126.72   26
126.74   20
126.76   24
126.78   41
126.8    22
126.82   32
126.84   27
126.86   30
126.88   26
126.9    28
126.92   29
126.94   24
126.96   24
126.98   36
127.0    32
127.02   23
127.04   20
127.06   23
127.08   23
127.1    29
127.12   29
127.14   36
127.16   36
127.18   25
127.2    17
127.22   37
127.24   28
127.26   32
127.28   28
127.3    27
127.32   28
127.34   25
127.36   39
127.38   25
127.4    24
127.42   34
127.44   17
127.46   33
127.48   20
127.5    21
127.52   33
127.54   25
127.56   27
127.58   26
127.6    28
127.62   28
127.64   26
127.66   26
127.68   28
127.7    20
127.72   18
127.74   24
127.76   25
127.78   29
127.8    26
127.82   29
127.84   21
127.86   30
127.88   24
127.9    29
127.92   34
127.94   26
127.96   37
127.98   38
128.0    31
128.02   27
128.04   28
128.06   30
128.08   17
128.1    21
128.12   24
128.14   18
128.16   23
128.18   36
128.2    23
128.22   28
128.24   32
128.26   33
128.28   34
128.3    38
128.32   23
128.34   25
128.36   24
128.38   20
128.4    20
128.42   16
128.44   25
128.46   28
128.48   23
128.5    39
128.52   29
128.54   20
128.56   31
128.58   28
128.6    26
128.62   28
128.64   26
128.66   28
128.68   26
128.7    24
128.72   19
128.74   20
128.76   36
128.78   31
128.8    16
128.82   26
128.84   28
128.86   35
128.88   28
128.9    31
128.92   31
128.94   24
128.96   28
128.98   30
129.0    21
129.02   31
129.04   23
129.06   22
129.08   32
129.1    23
129.12   22
129.14   30
129.16   24
129.18   32
129.2    19
129.22   22
129.24   26
129.26   28
129.28   31
129.3    25
129.32   39
129.34   36
129.36   34
129.38   23
129.4    17
129.42   39
129.44   23
129.46   33
129.48   30
129.5    33
129.52   30
129.54   34
129.56   27
129.58   32
129.6    33
129.62   34
129.64   34
129.66   29
129.68   40
129.7    24
129.72   26
129.74   27
129.76   25
129.78   29
129.8    33
129.82   29
129.84   39
129.86   37
129.88   35
129.9    31
129.92   15
129.94   30
129.96   24
129.98   34
130.0    27
130.02   39
130.04   36
130.06   18
130.08   24
130.1    28
130.12   27
130.14   36
130.16   21
130.18   32
130.2    30
130.22   38
130.24   24
130.26   28
130.28   26
130.3    32
130.32   32
130.34   28
130.36   16
130.38   24
130.4    35
130.42   35
130.44   44
130.46   27
130.48   27
130.5    32
130.52   31
130.54   18
130.56   21
130.58   26
130.6    32
130.62   31
130.64   29
130.66   28
130.68   40
130.7    19
130.72   31
130.74   35
130.76   34
130.78   24
130.8    32
130.82   40
130.84   39
130.86   37
130.88   35
130.9    29
130.92   25
130.94   43
130.96   37
130.98   41
131.0    27
131.02   22
131.04   32
131.06   24
131.08   25
131.1    23
131.12   26
131.14   30
131.16   29
131.18   30
131.2    21
131.22   32
131.24   33
131.26   29
131.28   26
131.3    27
131.32   34
131.34   27
131.36   24
131.38   31
131.4    28
131.42   35
131.44   30
131.46   33
131.48   38
131.5    33
131.52   25
131.54   31
131.56   39
131.58   24
131.6    23
131.62   26
131.64   38
131.66   42
131.68   26
131.7    28
131.72   27
131.74   28
131.76   21
131.78   34
131.8    34
131.82   32
131.84   35
131.86   34
131.88   24
131.9    33
131.92   29
131.94   34
131.96   28
131.98   39
132.0    17
132.02   28
132.04   29
132.06   32
132.08   28
132.1    28
132.12   32
132.14   30
132.16   27
132.18   31
132.2    34
132.22   23
132.24   30
132.26   37
132.28   35
132.3    27
132.32   27
132.34   37
132.36   30
132.38   30
132.4    38
132.42   22
132.44   37
132.46   30
132.48   26
132.5    25
132.52   30
132.54   28
132.56   24
132.58   33
132.6    31
132.62   39
132.64   34
132.66   26
132.68   25
132.7    26
132.72   31
132.74   33
132.76   34
132.78   32
132.8    26
132.82   19
132.84   28
132.86   43
132.88   31
132.9    27
132.92   24
132.94   33
132.96   30
132.98   26
133.0    25
133.02   29
133.04   38
133.06   25
133.08   35
133.1    29
133.12   33
133.14   25
133.16   30
133.18   24
133.2    36
133.22   24
133.24   32
133.26   32
133.28   33
133.3    35
133.32   25
133.34   31
133.36   34
133.38   29
133.4    34
133.42   27
133.44   40
133.46   39
133.48   26
133.5    23
133.52   37
133.54   40
133.56   36
133.58   30
133.6    39
133.62   41
133.64   33
133.66   30
133.68   39
133.7    40
133.72   32
133.74   40
133.76   42
133.78   37
133.8    39
133.82   41
133.84   25
133.86   41
133.88   52
133.9    32
133.92   45
133.94   46
133.96   57
133.98   49
134.0    49
134.02   60
134.04   47
134.06   44
134.08   47
134.1    63
134.12   56
134.14   60
134.16   75
134.18   70
134.2    72
134.22   80
134.24   100
134.26   108
134.28   131
134.3    143
134.32   159
134.34   167
134.36   208
134.38   230
134.4    255
134.42   259
134.44   277
134.46   247
134.48   291
134.5    207
134.52   196
134.54   187
134.56   190
134.58   179
134.6    155
134.62   154
134.64   134
134.66   128
134.68   126
134.7    124
134.72   112
134.74   124
134.76   71
134.78   89
134.8    83
134.82   70
134.84   70
134.86   72
134.88   85
134.9    74
134.92   82
134.94   97
134.96   89
134.98   100
135.0    101
135.02   125
135.04   142
135.06   133
135.08   123
135.1    137
135.12   146
135.14   115
135.16   141
135.18   124
135.2    109
135.22   136
135.24   97
135.26   109
135.28   83
135.3    110
135.32   76
135.34   76
135.36   79
135.38   93
135.4    62
135.42   70
135.44   74
135.46   60
135.48   58
135.5    38
135.52   52
135.54   39
135.56   48
135.58   41
135.6    42
135.62   47
135.64   41
135.66   44
135.68   30
135.7    29
135.72   35
135.74   31
135.76   31
135.78   42
135.8    38
135.82   28
135.84   40
135.86   36
135.88   31
135.9    28
135.92   47
135.94   33
135.96   30
135.98   39
136.0    32
136.02   34
136.04   29
136.06   38
136.08   32
136.1    39
136.12   27
136.14   25
136.16   27
136.18   33
136.2    32
136.22   46
136.24   36
136.26   36
136.28   42
136.3    36
136.32   28
136.34   32
136.36   40
136.38   26
136.4    37
136.42   37
136.44   29
136.46   35
136.48   39
136.5    47
136.52   30
136.54   32
136.56   35
136.58   30
136.6    27
136.62   30
136.64   27
136.66   31
136.68   23
136.7    37
136.72   30
136.74   35
136.76   41
136.78   30
136.8    28
136.82   21
136.84   27
136.86   31
136.88   32
136.9    36
136.92   39
136.94   41
136.96   28
136.98   27
137.0    26
137.02   22
137.04   29
137.06   34
137.08   26
137.1    35
137.12   27
137.14   25
137.16   29
137.18   28
137.2    30
137.22   24
137.24   26
137.26   25
137.28   40
137.3    26
137.32   44
137.34   34
137.36   28
137.38   34
137.4    30
137.42   35
137.44   27
137.46   28
137.48   44
137.5    26
137.52   19
137.54   38
137.56   35
137.58   32
137.6    20
137.62   34
137.64   29
137.66   19
137.68   31
137.7    39
137.72   30
137.74   31
137.76   27
137.78   23
137.8    32
137.82   33
137.84   35
137.86   36
137.88   29
137.9    27
137.92   25
137.94   25
137.96   25
137.98   36
138.0    37
138.02   41
138.04   26
138.06   33
138.08   28
138.1    40
138.12   25
138.14   26
138.16   26
138.18   25
138.2    26
138.22   28
138.24   41
138.26   31
138.28   32
138.3    33
138.32   27
138.34   28
138.36   31
138.38   18
138.4    30
138.42   36
138.44   37
138.46   36
138.48   33
138.5    34
138.52   21
138.54   27
138.56   44
138.58   43
138.6    34
138.62   29
138.64   36
138.66   30
138.68   31
138.7    26
138.72   27
138.74   36
138.76   37
138.78   33
138.8    33
138.82   21
138.84   29
138.86   27
138.88   29
138.9    41
138.92   33
138.94   25
138.96   30
138.98   23
139.0    32
139.02   45
139.04   32
139.06   30
139.08   20
139.1    36
139.12   31
139.14   34
139.16   20
139.18   26
139.2    36
139.22   33
139.24   20
139.26   22
139.28   24
139.3    22
139.32   33
139.34   31
139.36   38
139.38   38
139.4    25
139.42   28
139.44   43
139.46   33
139.48   31
139.5    37
139.52   31
139.54   20
139.56   29
139.58   33
139.6    37
139.62   24
139.64   30
139.66   38
139.68   33
139.7    35
139.72   30
139.74   34
139.76   30
139.78   33
139.8    37
139.82   34
139.84   27
139.86   29
139.88   35
139.9    32
139.92   38
139.94   30
139.96   32
139.98   31
140.0    30
